Summary
Study Name,"ATR 11. US 322, Black Horse Pike, 500 feet East of Palace Restaurant & Outfitters"
Project,SJTPO: T-1030051: Data Collection Program
Project Code,T-1030051
Channel Granularity,By Lanes
Bin Size,1 hour
Time Zone,America/New_York
Start Time,2026-05-06 00:00:00 -0400
End Time,2026-05-13 00:00:00 -0400
Location,SJTPO ATR 11
Latitude and Longitude,"39.512313,-74.776581"
""
Midday Peak,May 08 2026 12:15PM - 1:15 PM (0.895)
AM Peak (WKND),May 09 2026  9AM - 10 AM (0.943)
Midday Peak (WKND),May 10 2026 12:15PM - 1:15 PM (0.917)
PM Peak (WKND),May 10 2026  1PM - 2 PM (0.877)
AM Peak,May 12 2026  7:15AM - 8:15 AM (0.904)
PM Peak (Overall Peak Hour),May 12 2026  4:30PM - 5:30 PM (0.953)
Motorcycles
Entry,n/a,"",n/a,""
Direction,Eastbound,"",Westbound,""
Start Time,Lane 1,Lane 2,Lane 1,Lane 2
2026-05-06 00:00:00 -0400,0,0,0,0
2026-05-06 01:00:00 -0400,0,0,0,0
2026-05-06 02:00:00 -0400,1,0,0,0
2026-05-06 03:00:00 -0400,0,0,0,0
2026-05-06 04:00:00 -0400,0,0,0,0
2026-05-06 05:00:00 -0400,1,0,0,0
2026-05-06 06:00:00 -0400,0,0,0,1
2026-05-06 07:00:00 -0400,0,0,0,1
2026-05-06 08:00:00 -0400,1,0,1,0
2026-05-06 09:00:00 -0400,0,0,0,1
2026-05-06 10:00:00 -0400,1,0,1,0
2026-05-06 11:00:00 -0400,0,0,0,0
2026-05-06 12:00:00 -0400,0,0,1,0
2026-05-06 13:00:00 -0400,1,0,0,0
2026-05-06 14:00:00 -0400,0,0,0,0
2026-05-06 15:00:00 -0400,0,1,0,0
2026-05-06 16:00:00 -0400,1,1,1,0
2026-05-06 17:00:00 -0400,2,0,0,0
2026-05-06 18:00:00 -0400,1,1,0,0
2026-05-06 19:00:00 -0400,0,1,0,0
2026-05-06 20:00:00 -0400,0,0,0,0
2026-05-06 21:00:00 -0400,0,0,1,0
2026-05-06 22:00:00 -0400,1,0,0,0
2026-05-06 23:00:00 -0400,0,0,0,0
2026-05-07 00:00:00 -0400,0,0,0,0
2026-05-07 01:00:00 -0400,0,0,0,0
2026-05-07 02:00:00 -0400,0,0,0,0
2026-05-07 03:00:00 -0400,0,0,0,0
2026-05-07 04:00:00 -0400,0,0,0,0
2026-05-07 05:00:00 -0400,0,0,0,0
2026-05-07 06:00:00 -0400,0,0,0,0
2026-05-07 07:00:00 -0400,0,0,0,0
2026-05-07 08:00:00 -0400,0,0,0,0
2026-05-07 09:00:00 -0400,1,0,0,0
2026-05-07 10:00:00 -0400,0,0,0,0
2026-05-07 11:00:00 -0400,0,0,0,0
2026-05-07 12:00:00 -0400,0,0,0,0
2026-05-07 13:00:00 -0400,0,0,0,1
2026-05-07 14:00:00 -0400,0,1,0,0
2026-05-07 15:00:00 -0400,0,0,0,0
2026-05-07 16:00:00 -0400,0,2,1,0
2026-05-07 17:00:00 -0400,1,0,0,1
2026-05-07 18:00:00 -0400,0,1,0,1
2026-05-07 19:00:00 -0400,2,0,2,0
2026-05-07 20:00:00 -0400,0,0,0,0
2026-05-07 21:00:00 -0400,0,0,0,0
2026-05-07 22:00:00 -0400,0,0,0,0
2026-05-07 23:00:00 -0400,0,0,0,0
2026-05-08 00:00:00 -0400,0,0,0,1
2026-05-08 01:00:00 -0400,0,0,0,0
2026-05-08 02:00:00 -0400,0,0,0,0
2026-05-08 03:00:00 -0400,0,0,0,0
2026-05-08 04:00:00 -0400,0,0,0,0
2026-05-08 05:00:00 -0400,0,0,0,0
2026-05-08 06:00:00 -0400,1,0,1,0
2026-05-08 07:00:00 -0400,0,1,2,1
2026-05-08 08:00:00 -0400,0,0,1,0
2026-05-08 09:00:00 -0400,1,0,1,1
2026-05-08 10:00:00 -0400,1,2,1,1
2026-05-08 11:00:00 -0400,1,0,0,0
2026-05-08 12:00:00 -0400,3,0,1,1
2026-05-08 13:00:00 -0400,5,4,1,0
2026-05-08 14:00:00 -0400,3,2,1,2
2026-05-08 15:00:00 -0400,1,1,0,2
2026-05-08 16:00:00 -0400,0,0,1,4
2026-05-08 17:00:00 -0400,2,2,1,4
2026-05-08 18:00:00 -0400,2,2,0,0
2026-05-08 19:00:00 -0400,0,0,3,1
2026-05-08 20:00:00 -0400,0,1,0,0
2026-05-08 21:00:00 -0400,0,0,0,0
2026-05-08 22:00:00 -0400,1,0,0,0
2026-05-08 23:00:00 -0400,0,0,0,0
2026-05-09 00:00:00 -0400,0,0,0,0
2026-05-09 01:00:00 -0400,0,0,0,0
2026-05-09 02:00:00 -0400,0,0,0,0
2026-05-09 03:00:00 -0400,0,0,0,0
2026-05-09 04:00:00 -0400,0,0,0,0
2026-05-09 05:00:00 -0400,0,0,0,0
2026-05-09 06:00:00 -0400,0,0,0,1
2026-05-09 07:00:00 -0400,0,0,0,0
2026-05-09 08:00:00 -0400,2,0,1,0
2026-05-09 09:00:00 -0400,0,1,2,1
2026-05-09 10:00:00 -0400,1,0,0,1
2026-05-09 11:00:00 -0400,1,1,1,0
2026-05-09 12:00:00 -0400,0,0,1,0
2026-05-09 13:00:00 -0400,0,3,0,0
2026-05-09 14:00:00 -0400,1,1,1,0
2026-05-09 15:00:00 -0400,1,2,1,1
2026-05-09 16:00:00 -0400,1,0,1,1
2026-05-09 17:00:00 -0400,2,0,0,0
2026-05-09 18:00:00 -0400,3,1,0,0
2026-05-09 19:00:00 -0400,0,0,1,0
2026-05-09 20:00:00 -0400,0,1,0,0
2026-05-09 21:00:00 -0400,0,0,0,1
2026-05-09 22:00:00 -0400,0,0,0,0
2026-05-09 23:00:00 -0400,0,0,0,0
2026-05-10 00:00:00 -0400,0,0,0,0
2026-05-10 01:00:00 -0400,0,0,0,0
2026-05-10 02:00:00 -0400,0,0,0,0
2026-05-10 03:00:00 -0400,0,0,0,0
2026-05-10 04:00:00 -0400,0,0,0,0
2026-05-10 05:00:00 -0400,0,0,4,1
2026-05-10 06:00:00 -0400,0,0,0,0
2026-05-10 07:00:00 -0400,0,0,1,0
2026-05-10 08:00:00 -0400,0,0,0,0
2026-05-10 09:00:00 -0400,1,0,1,1
2026-05-10 10:00:00 -0400,1,0,0,2
2026-05-10 11:00:00 -0400,2,0,7,0
2026-05-10 12:00:00 -0400,1,0,4,4
2026-05-10 13:00:00 -0400,5,2,2,4
2026-05-10 14:00:00 -0400,5,7,0,6
2026-05-10 15:00:00 -0400,6,1,2,1
2026-05-10 16:00:00 -0400,5,3,1,4
2026-05-10 17:00:00 -0400,1,4,2,1
2026-05-10 18:00:00 -0400,4,3,1,0
2026-05-10 19:00:00 -0400,2,4,0,0
2026-05-10 20:00:00 -0400,0,0,0,0
2026-05-10 21:00:00 -0400,0,0,0,0
2026-05-10 22:00:00 -0400,0,0,0,0
2026-05-10 23:00:00 -0400,0,0,0,0
2026-05-11 00:00:00 -0400,0,0,0,0
2026-05-11 01:00:00 -0400,0,0,0,0
2026-05-11 02:00:00 -0400,0,0,0,0
2026-05-11 03:00:00 -0400,0,0,0,0
2026-05-11 04:00:00 -0400,0,0,0,0
2026-05-11 05:00:00 -0400,0,0,0,0
2026-05-11 06:00:00 -0400,0,0,0,1
2026-05-11 07:00:00 -0400,0,0,0,0
2026-05-11 08:00:00 -0400,0,0,0,0
2026-05-11 09:00:00 -0400,0,0,0,1
2026-05-11 10:00:00 -0400,0,0,0,0
2026-05-11 11:00:00 -0400,0,0,0,0
2026-05-11 12:00:00 -0400,0,0,0,0
2026-05-11 13:00:00 -0400,0,1,0,0
2026-05-11 14:00:00 -0400,0,0,0,1
2026-05-11 15:00:00 -0400,0,0,0,0
2026-05-11 16:00:00 -0400,0,1,0,0
2026-05-11 17:00:00 -0400,1,0,0,0
2026-05-11 18:00:00 -0400,0,0,0,0
2026-05-11 19:00:00 -0400,0,0,0,0
2026-05-11 20:00:00 -0400,0,0,0,0
2026-05-11 21:00:00 -0400,0,0,0,0
2026-05-11 22:00:00 -0400,0,0,0,0
2026-05-11 23:00:00 -0400,0,0,0,0
2026-05-12 00:00:00 -0400,0,0,0,0
2026-05-12 01:00:00 -0400,0,0,0,0
2026-05-12 02:00:00 -0400,0,0,0,0
2026-05-12 03:00:00 -0400,0,0,0,0
2026-05-12 04:00:00 -0400,0,0,0,0
2026-05-12 05:00:00 -0400,1,0,0,0
2026-05-12 06:00:00 -0400,1,0,0,1
2026-05-12 07:00:00 -0400,0,2,0,1
2026-05-12 08:00:00 -0400,0,0,0,0
2026-05-12 09:00:00 -0400,0,0,0,0
2026-05-12 10:00:00 -0400,1,0,0,0
2026-05-12 11:00:00 -0400,0,0,0,0
2026-05-12 12:00:00 -0400,1,2,1,0
2026-05-12 13:00:00 -0400,1,0,1,0
2026-05-12 14:00:00 -0400,1,0,1,0
2026-05-12 15:00:00 -0400,1,1,3,1
2026-05-12 16:00:00 -0400,1,1,1,3
2026-05-12 17:00:00 -0400,1,5,1,1
2026-05-12 18:00:00 -0400,0,3,3,1
2026-05-12 19:00:00 -0400,4,1,0,3
2026-05-12 20:00:00 -0400,1,0,0,0
2026-05-12 21:00:00 -0400,2,0,0,0
2026-05-12 22:00:00 -0400,0,0,0,0
2026-05-12 23:00:00 -0400,0,0,0,0
Lights
Entry,n/a,"",n/a,""
Direction,Eastbound,"",Westbound,""
Start Time,Lane 1,Lane 2,Lane 1,Lane 2
2026-05-06 00:00:00 -0400,44,8,41,13
2026-05-06 01:00:00 -0400,27,5,26,7
2026-05-06 02:00:00 -0400,20,1,16,5
2026-05-06 03:00:00 -0400,28,7,24,8
2026-05-06 04:00:00 -0400,74,16,48,7
2026-05-06 05:00:00 -0400,161,35,186,57
2026-05-06 06:00:00 -0400,301,108,371,297
2026-05-06 07:00:00 -0400,344,114,467,430
2026-05-06 08:00:00 -0400,334,84,398,285
2026-05-06 09:00:00 -0400,282,94,289,169
2026-05-06 10:00:00 -0400,264,80,253,125
2026-05-06 11:00:00 -0400,288,75,242,105
2026-05-06 12:00:00 -0400,295,83,246,124
2026-05-06 13:00:00 -0400,330,133,254,141
2026-05-06 14:00:00 -0400,437,200,274,190
2026-05-06 15:00:00 -0400,526,276,304,225
2026-05-06 16:00:00 -0400,594,309,356,248
2026-05-06 17:00:00 -0400,506,253,345,238
2026-05-06 18:00:00 -0400,349,106,287,161
2026-05-06 19:00:00 -0400,256,72,216,106
2026-05-06 20:00:00 -0400,231,57,168,60
2026-05-06 21:00:00 -0400,166,30,127,53
2026-05-06 22:00:00 -0400,129,21,118,33
2026-05-06 23:00:00 -0400,74,19,76,13
2026-05-07 00:00:00 -0400,52,11,42,8
2026-05-07 01:00:00 -0400,17,6,16,3
2026-05-07 02:00:00 -0400,19,4,23,1
2026-05-07 03:00:00 -0400,36,5,19,9
2026-05-07 04:00:00 -0400,81,13,48,15
2026-05-07 05:00:00 -0400,152,45,168,56
2026-05-07 06:00:00 -0400,288,87,347,288
2026-05-07 07:00:00 -0400,339,101,462,453
2026-05-07 08:00:00 -0400,305,109,381,276
2026-05-07 09:00:00 -0400,287,76,303,143
2026-05-07 10:00:00 -0400,298,78,276,134
2026-05-07 11:00:00 -0400,278,85,252,109
2026-05-07 12:00:00 -0400,346,87,266,144
2026-05-07 13:00:00 -0400,334,95,302,170
2026-05-07 14:00:00 -0400,424,162,285,177
2026-05-07 15:00:00 -0400,538,246,304,239
2026-05-07 16:00:00 -0400,616,297,372,258
2026-05-07 17:00:00 -0400,531,239,319,306
2026-05-07 18:00:00 -0400,421,129,270,165
2026-05-07 19:00:00 -0400,287,73,224,103
2026-05-07 20:00:00 -0400,257,67,194,67
2026-05-07 21:00:00 -0400,171,53,183,31
2026-05-07 22:00:00 -0400,130,20,146,4
2026-05-07 23:00:00 -0400,94,15,73,25
2026-05-08 00:00:00 -0400,42,3,40,14
2026-05-08 01:00:00 -0400,29,2,29,7
2026-05-08 02:00:00 -0400,21,1,27,4
2026-05-08 03:00:00 -0400,36,4,25,4
2026-05-08 04:00:00 -0400,71,16,46,8
2026-05-08 05:00:00 -0400,144,34,164,63
2026-05-08 06:00:00 -0400,269,86,356,237
2026-05-08 07:00:00 -0400,335,107,414,396
2026-05-08 08:00:00 -0400,309,98,357,198
2026-05-08 09:00:00 -0400,294,71,306,181
2026-05-08 10:00:00 -0400,289,90,293,134
2026-05-08 11:00:00 -0400,317,96,294,144
2026-05-08 12:00:00 -0400,378,106,303,171
2026-05-08 13:00:00 -0400,363,115,264,199
2026-05-08 14:00:00 -0400,496,195,319,232
2026-05-08 15:00:00 -0400,586,294,325,289
2026-05-08 16:00:00 -0400,571,248,342,324
2026-05-08 17:00:00 -0400,480,231,392,259
2026-05-08 18:00:00 -0400,365,127,320,221
2026-05-08 19:00:00 -0400,266,89,240,146
2026-05-08 20:00:00 -0400,252,82,206,74
2026-05-08 21:00:00 -0400,224,45,203,57
2026-05-08 22:00:00 -0400,158,33,125,50
2026-05-08 23:00:00 -0400,123,32,89,33
2026-05-09 00:00:00 -0400,60,14,92,21
2026-05-09 01:00:00 -0400,18,30,35,10
2026-05-09 02:00:00 -0400,19,14,34,8
2026-05-09 03:00:00 -0400,37,2,19,12
2026-05-09 04:00:00 -0400,39,6,19,17
2026-05-09 05:00:00 -0400,58,13,56,16
2026-05-09 06:00:00 -0400,106,17,133,40
2026-05-09 07:00:00 -0400,196,49,194,81
2026-05-09 08:00:00 -0400,299,84,229,112
2026-05-09 09:00:00 -0400,362,122,289,166
2026-05-09 10:00:00 -0400,363,94,282,153
2026-05-09 11:00:00 -0400,380,123,318,162
2026-05-09 12:00:00 -0400,390,157,356,214
2026-05-09 13:00:00 -0400,264,248,381,226
2026-05-09 14:00:00 -0400,416,148,356,256
2026-05-09 15:00:00 -0400,457,165,343,223
2026-05-09 16:00:00 -0400,395,122,314,226
2026-05-09 17:00:00 -0400,369,146,309,180
2026-05-09 18:00:00 -0400,320,104,274,192
2026-05-09 19:00:00 -0400,270,80,239,107
2026-05-09 20:00:00 -0400,237,72,180,73
2026-05-09 21:00:00 -0400,223,48,159,62
2026-05-09 22:00:00 -0400,182,47,116,41
2026-05-09 23:00:00 -0400,101,16,94,31
2026-05-10 00:00:00 -0400,81,11,58,25
2026-05-10 01:00:00 -0400,59,11,39,17
2026-05-10 02:00:00 -0400,35,15,30,3
2026-05-10 03:00:00 -0400,26,5,19,4
2026-05-10 04:00:00 -0400,34,7,21,7
2026-05-10 05:00:00 -0400,33,10,63,16
2026-05-10 06:00:00 -0400,59,11,96,19
2026-05-10 07:00:00 -0400,144,27,119,31
2026-05-10 08:00:00 -0400,201,44,169,58
2026-05-10 09:00:00 -0400,249,62,256,102
2026-05-10 10:00:00 -0400,349,98,298,150
2026-05-10 11:00:00 -0400,412,120,346,192
2026-05-10 12:00:00 -0400,452,152,347,229
2026-05-10 13:00:00 -0400,401,169,383,283
2026-05-10 14:00:00 -0400,454,152,331,193
2026-05-10 15:00:00 -0400,487,176,305,224
2026-05-10 16:00:00 -0400,463,176,329,234
2026-05-10 17:00:00 -0400,443,164,292,175
2026-05-10 18:00:00 -0400,423,142,262,140
2026-05-10 19:00:00 -0400,347,136,242,123
2026-05-10 20:00:00 -0400,291,95,160,89
2026-05-10 21:00:00 -0400,227,75,121,47
2026-05-10 22:00:00 -0400,120,36,66,48
2026-05-10 23:00:00 -0400,72,20,65,21
2026-05-11 00:00:00 -0400,41,8,27,10
2026-05-11 01:00:00 -0400,17,7,21,6
2026-05-11 02:00:00 -0400,21,3,16,4
2026-05-11 03:00:00 -0400,26,7,19,2
2026-05-11 04:00:00 -0400,71,7,42,12
2026-05-11 05:00:00 -0400,164,33,151,44
2026-05-11 06:00:00 -0400,283,99,334,277
2026-05-11 07:00:00 -0400,342,130,415,387
2026-05-11 08:00:00 -0400,320,131,347,275
2026-05-11 09:00:00 -0400,263,91,252,105
2026-05-11 10:00:00 -0400,275,61,236,123
2026-05-11 11:00:00 -0400,300,81,238,123
2026-05-11 12:00:00 -0400,307,92,237,145
2026-05-11 13:00:00 -0400,323,105,259,131
2026-05-11 14:00:00 -0400,411,177,269,148
2026-05-11 15:00:00 -0400,483,250,306,198
2026-05-11 16:00:00 -0400,551,257,343,276
2026-05-11 17:00:00 -0400,489,217,335,206
2026-05-11 18:00:00 -0400,351,99,237,165
2026-05-11 19:00:00 -0400,252,63,186,82
2026-05-11 20:00:00 -0400,211,53,180,62
2026-05-11 21:00:00 -0400,182,52,125,43
2026-05-11 22:00:00 -0400,128,14,106,33
2026-05-11 23:00:00 -0400,54,2,63,18
2026-05-12 00:00:00 -0400,32,3,36,12
2026-05-12 01:00:00 -0400,22,7,21,6
2026-05-12 02:00:00 -0400,30,0,15,4
2026-05-12 03:00:00 -0400,27,4,28,12
2026-05-12 04:00:00 -0400,65,16,53,7
2026-05-12 05:00:00 -0400,126,75,175,69
2026-05-12 06:00:00 -0400,313,91,376,290
2026-05-12 07:00:00 -0400,379,120,477,457
2026-05-12 08:00:00 -0400,360,131,399,317
2026-05-12 09:00:00 -0400,287,104,272,136
2026-05-12 10:00:00 -0400,281,71,227,108
2026-05-12 11:00:00 -0400,295,90,262,124
2026-05-12 12:00:00 -0400,323,94,263,126
2026-05-12 13:00:00 -0400,313,101,277,151
2026-05-12 14:00:00 -0400,390,151,290,170
2026-05-12 15:00:00 -0400,543,315,321,204
2026-05-12 16:00:00 -0400,609,273,362,263
2026-05-12 17:00:00 -0400,590,272,330,271
2026-05-12 18:00:00 -0400,391,118,275,170
2026-05-12 19:00:00 -0400,287,83,221,134
2026-05-12 20:00:00 -0400,233,62,186,72
2026-05-12 21:00:00 -0400,188,51,136,52
2026-05-12 22:00:00 -0400,108,33,92,17
2026-05-12 23:00:00 -0400,72,19,70,24
Single-Unit Trucks
Entry,n/a,"",n/a,""
Direction,Eastbound,"",Westbound,""
Start Time,Lane 1,Lane 2,Lane 1,Lane 2
2026-05-06 00:00:00 -0400,2,0,1,0
2026-05-06 01:00:00 -0400,0,2,1,0
2026-05-06 02:00:00 -0400,2,0,1,0
2026-05-06 03:00:00 -0400,1,0,1,0
2026-05-06 04:00:00 -0400,3,0,1,1
2026-05-06 05:00:00 -0400,3,0,3,2
2026-05-06 06:00:00 -0400,9,0,19,7
2026-05-06 07:00:00 -0400,11,2,16,3
2026-05-06 08:00:00 -0400,11,1,17,4
2026-05-06 09:00:00 -0400,15,0,13,5
2026-05-06 10:00:00 -0400,12,1,22,3
2026-05-06 11:00:00 -0400,12,1,11,8
2026-05-06 12:00:00 -0400,19,2,9,2
2026-05-06 13:00:00 -0400,17,2,13,2
2026-05-06 14:00:00 -0400,15,1,10,4
2026-05-06 15:00:00 -0400,14,2,7,2
2026-05-06 16:00:00 -0400,15,3,5,1
2026-05-06 17:00:00 -0400,8,2,6,0
2026-05-06 18:00:00 -0400,3,1,4,0
2026-05-06 19:00:00 -0400,3,0,2,1
2026-05-06 20:00:00 -0400,0,0,0,0
2026-05-06 21:00:00 -0400,1,0,3,0
2026-05-06 22:00:00 -0400,1,1,0,0
2026-05-06 23:00:00 -0400,0,0,1,0
2026-05-07 00:00:00 -0400,0,0,1,0
2026-05-07 01:00:00 -0400,0,0,1,0
2026-05-07 02:00:00 -0400,2,0,2,0
2026-05-07 03:00:00 -0400,4,0,2,0
2026-05-07 04:00:00 -0400,2,0,4,0
2026-05-07 05:00:00 -0400,4,0,6,0
2026-05-07 06:00:00 -0400,6,1,10,5
2026-05-07 07:00:00 -0400,7,2,14,8
2026-05-07 08:00:00 -0400,20,0,10,1
2026-05-07 09:00:00 -0400,10,1,14,0
2026-05-07 10:00:00 -0400,10,1,12,2
2026-05-07 11:00:00 -0400,13,0,8,1
2026-05-07 12:00:00 -0400,13,0,9,2
2026-05-07 13:00:00 -0400,11,2,11,2
2026-05-07 14:00:00 -0400,11,5,8,1
2026-05-07 15:00:00 -0400,14,4,7,3
2026-05-07 16:00:00 -0400,10,3,2,0
2026-05-07 17:00:00 -0400,9,1,1,1
2026-05-07 18:00:00 -0400,5,1,0,1
2026-05-07 19:00:00 -0400,3,0,5,0
2026-05-07 20:00:00 -0400,1,0,0,0
2026-05-07 21:00:00 -0400,4,0,0,2
2026-05-07 22:00:00 -0400,1,1,0,1
2026-05-07 23:00:00 -0400,0,0,0,0
2026-05-08 00:00:00 -0400,0,0,1,0
2026-05-08 01:00:00 -0400,0,2,0,0
2026-05-08 02:00:00 -0400,0,0,5,1
2026-05-08 03:00:00 -0400,0,1,0,0
2026-05-08 04:00:00 -0400,4,0,3,0
2026-05-08 05:00:00 -0400,2,0,4,0
2026-05-08 06:00:00 -0400,6,1,11,9
2026-05-08 07:00:00 -0400,11,2,27,6
2026-05-08 08:00:00 -0400,19,1,17,2
2026-05-08 09:00:00 -0400,19,1,16,5
2026-05-08 10:00:00 -0400,19,1,11,0
2026-05-08 11:00:00 -0400,23,0,14,5
2026-05-08 12:00:00 -0400,21,2,8,6
2026-05-08 13:00:00 -0400,12,3,10,3
2026-05-08 14:00:00 -0400,24,1,9,1
2026-05-08 15:00:00 -0400,24,2,2,1
2026-05-08 16:00:00 -0400,8,1,6,3
2026-05-08 17:00:00 -0400,3,3,2,1
2026-05-08 18:00:00 -0400,5,0,3,0
2026-05-08 19:00:00 -0400,1,0,2,1
2026-05-08 20:00:00 -0400,2,0,2,0
2026-05-08 21:00:00 -0400,1,0,2,4
2026-05-08 22:00:00 -0400,1,0,1,1
2026-05-08 23:00:00 -0400,0,0,2,0
2026-05-09 00:00:00 -0400,1,0,0,0
2026-05-09 01:00:00 -0400,3,0,3,0
2026-05-09 02:00:00 -0400,5,1,1,0
2026-05-09 03:00:00 -0400,0,0,3,0
2026-05-09 04:00:00 -0400,3,2,1,0
2026-05-09 05:00:00 -0400,2,0,3,0
2026-05-09 06:00:00 -0400,3,0,3,0
2026-05-09 07:00:00 -0400,2,0,4,0
2026-05-09 08:00:00 -0400,6,0,14,4
2026-05-09 09:00:00 -0400,5,1,2,0
2026-05-09 10:00:00 -0400,2,0,7,0
2026-05-09 11:00:00 -0400,7,0,2,1
2026-05-09 12:00:00 -0400,6,3,1,0
2026-05-09 13:00:00 -0400,3,1,3,0
2026-05-09 14:00:00 -0400,2,0,1,1
2026-05-09 15:00:00 -0400,5,0,1,0
2026-05-09 16:00:00 -0400,3,1,3,0
2026-05-09 17:00:00 -0400,0,1,3,0
2026-05-09 18:00:00 -0400,3,0,2,0
2026-05-09 19:00:00 -0400,6,0,3,0
2026-05-09 20:00:00 -0400,0,0,0,0
2026-05-09 21:00:00 -0400,1,0,1,1
2026-05-09 22:00:00 -0400,1,0,0,0
2026-05-09 23:00:00 -0400,0,0,1,0
2026-05-10 00:00:00 -0400,0,0,1,1
2026-05-10 01:00:00 -0400,0,0,1,0
2026-05-10 02:00:00 -0400,0,0,0,0
2026-05-10 03:00:00 -0400,2,0,0,0
2026-05-10 04:00:00 -0400,2,0,2,1
2026-05-10 05:00:00 -0400,0,0,0,0
2026-05-10 06:00:00 -0400,1,0,3,0
2026-05-10 07:00:00 -0400,2,1,0,0
2026-05-10 08:00:00 -0400,0,1,2,0
2026-05-10 09:00:00 -0400,0,0,4,0
2026-05-10 10:00:00 -0400,1,0,0,0
2026-05-10 11:00:00 -0400,1,0,2,1
2026-05-10 12:00:00 -0400,0,1,1,0
2026-05-10 13:00:00 -0400,0,0,1,0
2026-05-10 14:00:00 -0400,0,0,1,0
2026-05-10 15:00:00 -0400,1,0,0,0
2026-05-10 16:00:00 -0400,4,0,1,1
2026-05-10 17:00:00 -0400,1,1,0,1
2026-05-10 18:00:00 -0400,4,0,0,0
2026-05-10 19:00:00 -0400,1,0,1,0
2026-05-10 20:00:00 -0400,1,0,0,0
2026-05-10 21:00:00 -0400,0,0,1,0
2026-05-10 22:00:00 -0400,2,0,2,0
2026-05-10 23:00:00 -0400,0,1,0,0
2026-05-11 00:00:00 -0400,0,0,0,0
2026-05-11 01:00:00 -0400,0,0,0,0
2026-05-11 02:00:00 -0400,0,0,2,0
2026-05-11 03:00:00 -0400,0,0,2,0
2026-05-11 04:00:00 -0400,3,0,4,0
2026-05-11 05:00:00 -0400,4,0,1,1
2026-05-11 06:00:00 -0400,8,1,22,4
2026-05-11 07:00:00 -0400,15,0,10,4
2026-05-11 08:00:00 -0400,10,2,23,4
2026-05-11 09:00:00 -0400,13,1,22,0
2026-05-11 10:00:00 -0400,25,1,19,2
2026-05-11 11:00:00 -0400,18,0,14,4
2026-05-11 12:00:00 -0400,12,3,16,2
2026-05-11 13:00:00 -0400,17,2,7,2
2026-05-11 14:00:00 -0400,22,4,14,5
2026-05-11 15:00:00 -0400,22,1,12,0
2026-05-11 16:00:00 -0400,12,3,5,2
2026-05-11 17:00:00 -0400,9,2,4,0
2026-05-11 18:00:00 -0400,2,0,0,0
2026-05-11 19:00:00 -0400,2,1,1,0
2026-05-11 20:00:00 -0400,3,1,6,0
2026-05-11 21:00:00 -0400,0,0,0,0
2026-05-11 22:00:00 -0400,2,2,0,0
2026-05-11 23:00:00 -0400,0,2,0,0
2026-05-12 00:00:00 -0400,0,0,0,0
2026-05-12 01:00:00 -0400,0,0,2,0
2026-05-12 02:00:00 -0400,1,0,2,0
2026-05-12 03:00:00 -0400,3,0,0,0
2026-05-12 04:00:00 -0400,4,0,2,0
2026-05-12 05:00:00 -0400,5,1,10,0
2026-05-12 06:00:00 -0400,8,5,15,8
2026-05-12 07:00:00 -0400,9,2,29,3
2026-05-12 08:00:00 -0400,20,2,19,4
2026-05-12 09:00:00 -0400,22,2,18,3
2026-05-12 10:00:00 -0400,14,4,12,4
2026-05-12 11:00:00 -0400,20,1,15,2
2026-05-12 12:00:00 -0400,18,2,11,4
2026-05-12 13:00:00 -0400,18,2,9,1
2026-05-12 14:00:00 -0400,19,1,13,3
2026-05-12 15:00:00 -0400,17,4,2,1
2026-05-12 16:00:00 -0400,15,2,1,3
2026-05-12 17:00:00 -0400,11,1,6,0
2026-05-12 18:00:00 -0400,4,1,5,0
2026-05-12 19:00:00 -0400,1,1,5,0
2026-05-12 20:00:00 -0400,4,0,1,0
2026-05-12 21:00:00 -0400,3,0,1,0
2026-05-12 22:00:00 -0400,3,1,1,0
2026-05-12 23:00:00 -0400,1,1,0,1
Articulated Trucks
Entry,n/a,"",n/a,""
Direction,Eastbound,"",Westbound,""
Start Time,Lane 1,Lane 2,Lane 1,Lane 2
2026-05-06 00:00:00 -0400,1,0,0,0
2026-05-06 01:00:00 -0400,0,0,0,0
2026-05-06 02:00:00 -0400,1,0,0,0
2026-05-06 03:00:00 -0400,0,0,0,0
2026-05-06 04:00:00 -0400,0,0,1,0
2026-05-06 05:00:00 -0400,3,0,3,1
2026-05-06 06:00:00 -0400,2,0,4,0
2026-05-06 07:00:00 -0400,0,0,4,1
2026-05-06 08:00:00 -0400,3,0,4,1
2026-05-06 09:00:00 -0400,8,0,0,0
2026-05-06 10:00:00 -0400,5,0,3,1
2026-05-06 11:00:00 -0400,3,0,0,0
2026-05-06 12:00:00 -0400,4,0,2,0
2026-05-06 13:00:00 -0400,4,0,3,4
2026-05-06 14:00:00 -0400,6,0,2,1
2026-05-06 15:00:00 -0400,3,1,1,1
2026-05-06 16:00:00 -0400,4,0,1,1
2026-05-06 17:00:00 -0400,2,0,0,0
2026-05-06 18:00:00 -0400,0,1,2,0
2026-05-06 19:00:00 -0400,2,0,2,0
2026-05-06 20:00:00 -0400,1,0,4,0
2026-05-06 21:00:00 -0400,0,0,0,0
2026-05-06 22:00:00 -0400,0,0,0,0
2026-05-06 23:00:00 -0400,0,0,0,0
2026-05-07 00:00:00 -0400,1,0,1,0
2026-05-07 01:00:00 -0400,0,0,0,0
2026-05-07 02:00:00 -0400,0,0,0,0
2026-05-07 03:00:00 -0400,0,0,1,0
2026-05-07 04:00:00 -0400,1,0,1,0
2026-05-07 05:00:00 -0400,1,0,2,0
2026-05-07 06:00:00 -0400,1,0,2,3
2026-05-07 07:00:00 -0400,1,0,2,3
2026-05-07 08:00:00 -0400,3,1,4,0
2026-05-07 09:00:00 -0400,6,0,1,0
2026-05-07 10:00:00 -0400,4,0,1,2
2026-05-07 11:00:00 -0400,4,0,2,1
2026-05-07 12:00:00 -0400,2,0,2,2
2026-05-07 13:00:00 -0400,6,0,0,2
2026-05-07 14:00:00 -0400,2,0,2,1
2026-05-07 15:00:00 -0400,2,0,2,2
2026-05-07 16:00:00 -0400,2,1,2,0
2026-05-07 17:00:00 -0400,1,1,0,0
2026-05-07 18:00:00 -0400,1,0,1,1
2026-05-07 19:00:00 -0400,3,0,1,0
2026-05-07 20:00:00 -0400,1,0,0,0
2026-05-07 21:00:00 -0400,1,0,0,1
2026-05-07 22:00:00 -0400,1,0,0,1
2026-05-07 23:00:00 -0400,0,0,0,0
2026-05-08 00:00:00 -0400,1,0,1,0
2026-05-08 01:00:00 -0400,0,1,0,0
2026-05-08 02:00:00 -0400,3,0,0,0
2026-05-08 03:00:00 -0400,0,1,1,0
2026-05-08 04:00:00 -0400,0,0,0,0
2026-05-08 05:00:00 -0400,2,0,5,0
2026-05-08 06:00:00 -0400,0,0,2,1
2026-05-08 07:00:00 -0400,3,0,2,1
2026-05-08 08:00:00 -0400,4,1,3,0
2026-05-08 09:00:00 -0400,4,0,4,0
2026-05-08 10:00:00 -0400,2,0,0,1
2026-05-08 11:00:00 -0400,6,2,2,3
2026-05-08 12:00:00 -0400,2,0,2,4
2026-05-08 13:00:00 -0400,4,0,1,0
2026-05-08 14:00:00 -0400,4,1,4,0
2026-05-08 15:00:00 -0400,2,0,4,0
2026-05-08 16:00:00 -0400,2,0,0,0
2026-05-08 17:00:00 -0400,3,0,1,0
2026-05-08 18:00:00 -0400,0,0,2,0
2026-05-08 19:00:00 -0400,0,0,1,0
2026-05-08 20:00:00 -0400,1,0,0,0
2026-05-08 21:00:00 -0400,0,0,1,2
2026-05-08 22:00:00 -0400,1,0,0,0
2026-05-08 23:00:00 -0400,2,0,0,0
2026-05-09 00:00:00 -0400,0,0,0,0
2026-05-09 01:00:00 -0400,1,0,0,0
2026-05-09 02:00:00 -0400,1,0,1,0
2026-05-09 03:00:00 -0400,1,0,0,0
2026-05-09 04:00:00 -0400,3,0,0,0
2026-05-09 05:00:00 -0400,0,0,3,0
2026-05-09 06:00:00 -0400,2,0,2,0
2026-05-09 07:00:00 -0400,2,0,1,0
2026-05-09 08:00:00 -0400,2,0,4,0
2026-05-09 09:00:00 -0400,2,0,0,1
2026-05-09 10:00:00 -0400,4,0,3,0
2026-05-09 11:00:00 -0400,6,0,0,1
2026-05-09 12:00:00 -0400,1,0,0,0
2026-05-09 13:00:00 -0400,0,0,2,0
2026-05-09 14:00:00 -0400,1,0,0,2
2026-05-09 15:00:00 -0400,0,0,0,3
2026-05-09 16:00:00 -0400,0,0,0,0
2026-05-09 17:00:00 -0400,2,0,0,0
2026-05-09 18:00:00 -0400,0,0,0,0
2026-05-09 19:00:00 -0400,0,0,1,0
2026-05-09 20:00:00 -0400,1,0,1,0
2026-05-09 21:00:00 -0400,0,0,0,1
2026-05-09 22:00:00 -0400,1,0,1,0
2026-05-09 23:00:00 -0400,1,0,0,0
2026-05-10 00:00:00 -0400,2,0,1,0
2026-05-10 01:00:00 -0400,0,0,0,0
2026-05-10 02:00:00 -0400,0,0,0,0
2026-05-10 03:00:00 -0400,0,0,1,0
2026-05-10 04:00:00 -0400,0,0,1,0
2026-05-10 05:00:00 -0400,1,0,0,0
2026-05-10 06:00:00 -0400,1,0,0,0
2026-05-10 07:00:00 -0400,0,0,0,0
2026-05-10 08:00:00 -0400,1,0,1,1
2026-05-10 09:00:00 -0400,0,0,1,0
2026-05-10 10:00:00 -0400,1,0,0,0
2026-05-10 11:00:00 -0400,1,0,0,0
2026-05-10 12:00:00 -0400,1,0,0,1
2026-05-10 13:00:00 -0400,0,1,0,0
2026-05-10 14:00:00 -0400,0,0,0,0
2026-05-10 15:00:00 -0400,1,0,0,0
2026-05-10 16:00:00 -0400,0,0,0,0
2026-05-10 17:00:00 -0400,0,0,0,1
2026-05-10 18:00:00 -0400,0,0,1,0
2026-05-10 19:00:00 -0400,0,0,0,0
2026-05-10 20:00:00 -0400,1,0,0,0
2026-05-10 21:00:00 -0400,0,0,0,0
2026-05-10 22:00:00 -0400,1,0,1,0
2026-05-10 23:00:00 -0400,1,0,0,0
2026-05-11 00:00:00 -0400,0,0,0,0
2026-05-11 01:00:00 -0400,1,0,0,0
2026-05-11 02:00:00 -0400,1,0,1,0
2026-05-11 03:00:00 -0400,0,0,0,0
2026-05-11 04:00:00 -0400,0,0,2,0
2026-05-11 05:00:00 -0400,0,0,5,0
2026-05-11 06:00:00 -0400,3,0,5,1
2026-05-11 07:00:00 -0400,4,2,1,2
2026-05-11 08:00:00 -0400,3,1,1,0
2026-05-11 09:00:00 -0400,2,0,2,0
2026-05-11 10:00:00 -0400,5,0,1,0
2026-05-11 11:00:00 -0400,2,0,1,4
2026-05-11 12:00:00 -0400,9,0,1,1
2026-05-11 13:00:00 -0400,4,0,3,2
2026-05-11 14:00:00 -0400,4,0,2,2
2026-05-11 15:00:00 -0400,4,0,2,0
2026-05-11 16:00:00 -0400,4,0,1,1
2026-05-11 17:00:00 -0400,3,0,1,0
2026-05-11 18:00:00 -0400,0,0,0,0
2026-05-11 19:00:00 -0400,5,0,3,1
2026-05-11 20:00:00 -0400,2,0,0,0
2026-05-11 21:00:00 -0400,1,0,1,0
2026-05-11 22:00:00 -0400,0,2,0,0
2026-05-11 23:00:00 -0400,0,1,0,0
2026-05-12 00:00:00 -0400,1,0,0,0
2026-05-12 01:00:00 -0400,0,0,0,0
2026-05-12 02:00:00 -0400,0,0,0,0
2026-05-12 03:00:00 -0400,0,0,0,0
2026-05-12 04:00:00 -0400,0,1,0,0
2026-05-12 05:00:00 -0400,0,0,0,1
2026-05-12 06:00:00 -0400,1,0,1,1
2026-05-12 07:00:00 -0400,1,0,2,0
2026-05-12 08:00:00 -0400,3,0,6,3
2026-05-12 09:00:00 -0400,4,2,4,1
2026-05-12 10:00:00 -0400,4,1,1,1
2026-05-12 11:00:00 -0400,5,0,2,0
2026-05-12 12:00:00 -0400,4,0,1,2
2026-05-12 13:00:00 -0400,4,0,1,1
2026-05-12 14:00:00 -0400,6,0,5,1
2026-05-12 15:00:00 -0400,6,0,4,0
2026-05-12 16:00:00 -0400,4,0,2,0
2026-05-12 17:00:00 -0400,9,0,2,1
2026-05-12 18:00:00 -0400,1,0,1,0
2026-05-12 19:00:00 -0400,3,0,3,0
2026-05-12 20:00:00 -0400,1,0,1,0
2026-05-12 21:00:00 -0400,1,0,0,0
2026-05-12 22:00:00 -0400,1,0,1,0
2026-05-12 23:00:00 -0400,1,0,0,0
Buses
Entry,n/a,"",n/a,""
Direction,Eastbound,"",Westbound,""
Start Time,Lane 1,Lane 2,Lane 1,Lane 2
2026-05-06 00:00:00 -0400,0,0,0,0
2026-05-06 01:00:00 -0400,0,0,0,0
2026-05-06 02:00:00 -0400,0,0,0,0
2026-05-06 03:00:00 -0400,0,0,0,0
2026-05-06 04:00:00 -0400,0,0,0,0
2026-05-06 05:00:00 -0400,0,0,0,0
2026-05-06 06:00:00 -0400,8,0,2,1
2026-05-06 07:00:00 -0400,6,0,11,0
2026-05-06 08:00:00 -0400,11,2,10,1
2026-05-06 09:00:00 -0400,8,0,2,0
2026-05-06 10:00:00 -0400,2,0,5,0
2026-05-06 11:00:00 -0400,1,0,0,0
2026-05-06 12:00:00 -0400,0,0,1,2
2026-05-06 13:00:00 -0400,10,1,10,2
2026-05-06 14:00:00 -0400,9,0,9,2
2026-05-06 15:00:00 -0400,14,1,4,0
2026-05-06 16:00:00 -0400,6,0,5,1
2026-05-06 17:00:00 -0400,3,0,2,0
2026-05-06 18:00:00 -0400,2,1,2,2
2026-05-06 19:00:00 -0400,3,0,1,0
2026-05-06 20:00:00 -0400,0,0,0,0
2026-05-06 21:00:00 -0400,1,0,0,0
2026-05-06 22:00:00 -0400,0,0,0,0
2026-05-06 23:00:00 -0400,0,0,0,0
2026-05-07 00:00:00 -0400,0,0,0,0
2026-05-07 01:00:00 -0400,0,0,0,0
2026-05-07 02:00:00 -0400,0,0,0,0
2026-05-07 03:00:00 -0400,0,0,0,0
2026-05-07 04:00:00 -0400,0,0,0,0
2026-05-07 05:00:00 -0400,0,1,0,0
2026-05-07 06:00:00 -0400,8,0,0,4
2026-05-07 07:00:00 -0400,5,2,7,3
2026-05-07 08:00:00 -0400,6,1,11,0
2026-05-07 09:00:00 -0400,5,1,4,0
2026-05-07 10:00:00 -0400,1,0,0,1
2026-05-07 11:00:00 -0400,0,0,1,0
2026-05-07 12:00:00 -0400,1,0,2,0
2026-05-07 13:00:00 -0400,10,0,4,2
2026-05-07 14:00:00 -0400,7,1,7,3
2026-05-07 15:00:00 -0400,13,2,9,0
2026-05-07 16:00:00 -0400,5,0,4,0
2026-05-07 17:00:00 -0400,4,0,1,0
2026-05-07 18:00:00 -0400,3,0,2,1
2026-05-07 19:00:00 -0400,1,0,0,0
2026-05-07 20:00:00 -0400,0,0,0,0
2026-05-07 21:00:00 -0400,0,0,0,0
2026-05-07 22:00:00 -0400,0,0,0,0
2026-05-07 23:00:00 -0400,0,0,0,0
2026-05-08 00:00:00 -0400,0,0,0,0
2026-05-08 01:00:00 -0400,0,0,0,0
2026-05-08 02:00:00 -0400,0,0,0,0
2026-05-08 03:00:00 -0400,0,0,0,0
2026-05-08 04:00:00 -0400,0,0,0,0
2026-05-08 05:00:00 -0400,0,0,0,0
2026-05-08 06:00:00 -0400,7,0,2,0
2026-05-08 07:00:00 -0400,5,2,9,1
2026-05-08 08:00:00 -0400,4,1,11,1
2026-05-08 09:00:00 -0400,4,2,2,0
2026-05-08 10:00:00 -0400,1,1,8,1
2026-05-08 11:00:00 -0400,2,0,0,0
2026-05-08 12:00:00 -0400,1,0,2,0
2026-05-08 13:00:00 -0400,14,0,3,1
2026-05-08 14:00:00 -0400,5,4,9,1
2026-05-08 15:00:00 -0400,11,2,6,0
2026-05-08 16:00:00 -0400,4,0,4,2
2026-05-08 17:00:00 -0400,0,1,1,0
2026-05-08 18:00:00 -0400,1,0,4,0
2026-05-08 19:00:00 -0400,1,0,0,0
2026-05-08 20:00:00 -0400,0,0,0,0
2026-05-08 21:00:00 -0400,0,0,0,0
2026-05-08 22:00:00 -0400,0,0,0,0
2026-05-08 23:00:00 -0400,0,0,0,1
2026-05-09 00:00:00 -0400,0,0,0,0
2026-05-09 01:00:00 -0400,0,0,0,0
2026-05-09 02:00:00 -0400,0,0,0,0
2026-05-09 03:00:00 -0400,0,0,0,0
2026-05-09 04:00:00 -0400,0,0,0,0
2026-05-09 05:00:00 -0400,0,0,0,0
2026-05-09 06:00:00 -0400,0,0,0,0
2026-05-09 07:00:00 -0400,0,0,0,0
2026-05-09 08:00:00 -0400,5,0,0,0
2026-05-09 09:00:00 -0400,6,0,2,0
2026-05-09 10:00:00 -0400,1,0,1,1
2026-05-09 11:00:00 -0400,1,0,0,0
2026-05-09 12:00:00 -0400,1,0,1,0
2026-05-09 13:00:00 -0400,1,1,1,0
2026-05-09 14:00:00 -0400,0,0,3,3
2026-05-09 15:00:00 -0400,1,0,0,0
2026-05-09 16:00:00 -0400,0,0,0,0
2026-05-09 17:00:00 -0400,1,0,0,0
2026-05-09 18:00:00 -0400,0,0,0,0
2026-05-09 19:00:00 -0400,3,0,0,1
2026-05-09 20:00:00 -0400,0,0,1,0
2026-05-09 21:00:00 -0400,0,0,1,0
2026-05-09 22:00:00 -0400,0,0,2,0
2026-05-09 23:00:00 -0400,0,0,0,0
2026-05-10 00:00:00 -0400,0,0,0,0
2026-05-10 01:00:00 -0400,0,0,0,0
2026-05-10 02:00:00 -0400,0,0,0,0
2026-05-10 03:00:00 -0400,0,0,0,0
2026-05-10 04:00:00 -0400,0,0,0,0
2026-05-10 05:00:00 -0400,0,0,0,0
2026-05-10 06:00:00 -0400,0,0,0,0
2026-05-10 07:00:00 -0400,0,0,0,0
2026-05-10 08:00:00 -0400,0,0,0,0
2026-05-10 09:00:00 -0400,1,0,0,0
2026-05-10 10:00:00 -0400,0,0,1,0
2026-05-10 11:00:00 -0400,1,0,0,0
2026-05-10 12:00:00 -0400,0,0,0,0
2026-05-10 13:00:00 -0400,1,0,0,0
2026-05-10 14:00:00 -0400,0,0,0,0
2026-05-10 15:00:00 -0400,0,0,0,0
2026-05-10 16:00:00 -0400,0,0,0,0
2026-05-10 17:00:00 -0400,0,0,0,0
2026-05-10 18:00:00 -0400,0,0,0,1
2026-05-10 19:00:00 -0400,1,0,0,0
2026-05-10 20:00:00 -0400,0,0,0,0
2026-05-10 21:00:00 -0400,0,0,0,0
2026-05-10 22:00:00 -0400,0,0,0,0
2026-05-10 23:00:00 -0400,0,0,0,0
2026-05-11 00:00:00 -0400,0,0,0,0
2026-05-11 01:00:00 -0400,0,0,0,0
2026-05-11 02:00:00 -0400,0,0,0,0
2026-05-11 03:00:00 -0400,0,0,0,0
2026-05-11 04:00:00 -0400,0,0,0,0
2026-05-11 05:00:00 -0400,1,0,0,0
2026-05-11 06:00:00 -0400,6,1,2,0
2026-05-11 07:00:00 -0400,8,1,9,3
2026-05-11 08:00:00 -0400,5,1,10,1
2026-05-11 09:00:00 -0400,6,0,0,0
2026-05-11 10:00:00 -0400,0,0,2,0
2026-05-11 11:00:00 -0400,1,0,1,0
2026-05-11 12:00:00 -0400,1,0,0,1
2026-05-11 13:00:00 -0400,5,0,3,1
2026-05-11 14:00:00 -0400,6,2,6,0
2026-05-11 15:00:00 -0400,12,1,4,2
2026-05-11 16:00:00 -0400,2,2,6,1
2026-05-11 17:00:00 -0400,2,0,0,0
2026-05-11 18:00:00 -0400,1,0,4,0
2026-05-11 19:00:00 -0400,1,0,0,0
2026-05-11 20:00:00 -0400,1,0,0,0
2026-05-11 21:00:00 -0400,0,0,0,0
2026-05-11 22:00:00 -0400,0,0,0,0
2026-05-11 23:00:00 -0400,0,0,0,0
2026-05-12 00:00:00 -0400,0,0,0,0
2026-05-12 01:00:00 -0400,0,0,0,0
2026-05-12 02:00:00 -0400,0,0,0,0
2026-05-12 03:00:00 -0400,0,0,0,0
2026-05-12 04:00:00 -0400,0,0,0,0
2026-05-12 05:00:00 -0400,0,0,0,0
2026-05-12 06:00:00 -0400,5,1,1,0
2026-05-12 07:00:00 -0400,6,1,8,3
2026-05-12 08:00:00 -0400,5,1,12,1
2026-05-12 09:00:00 -0400,5,1,0,0
2026-05-12 10:00:00 -0400,1,0,1,0
2026-05-12 11:00:00 -0400,0,0,0,0
2026-05-12 12:00:00 -0400,0,0,0,0
2026-05-12 13:00:00 -0400,4,0,3,0
2026-05-12 14:00:00 -0400,6,2,8,1
2026-05-12 15:00:00 -0400,16,0,6,1
2026-05-12 16:00:00 -0400,7,1,4,1
2026-05-12 17:00:00 -0400,2,0,2,0
2026-05-12 18:00:00 -0400,2,0,2,0
2026-05-12 19:00:00 -0400,1,0,0,0
2026-05-12 20:00:00 -0400,0,0,0,0
2026-05-12 21:00:00 -0400,0,0,0,0
2026-05-12 22:00:00 -0400,0,0,0,0
2026-05-12 23:00:00 -0400,0,0,0,0
Bicycles on Road
Entry,n/a,"",n/a,""
Direction,Eastbound,"",Westbound,""
Start Time,Lane 1,Lane 2,Lane 1,Lane 2
2026-05-06 00:00:00 -0400,0,0,0,0
2026-05-06 01:00:00 -0400,0,0,0,0
2026-05-06 02:00:00 -0400,0,0,0,0
2026-05-06 03:00:00 -0400,0,0,0,0
2026-05-06 04:00:00 -0400,0,0,0,0
2026-05-06 05:00:00 -0400,0,0,0,0
2026-05-06 06:00:00 -0400,0,0,0,0
2026-05-06 07:00:00 -0400,0,0,0,0
2026-05-06 08:00:00 -0400,0,0,0,0
2026-05-06 09:00:00 -0400,0,0,0,0
2026-05-06 10:00:00 -0400,0,0,0,0
2026-05-06 11:00:00 -0400,0,0,0,0
2026-05-06 12:00:00 -0400,0,0,0,0
2026-05-06 13:00:00 -0400,0,0,0,0
2026-05-06 14:00:00 -0400,0,0,0,0
2026-05-06 15:00:00 -0400,0,0,0,0
2026-05-06 16:00:00 -0400,0,0,0,0
2026-05-06 17:00:00 -0400,0,0,0,0
2026-05-06 18:00:00 -0400,0,0,0,0
2026-05-06 19:00:00 -0400,0,0,0,0
2026-05-06 20:00:00 -0400,0,0,0,0
2026-05-06 21:00:00 -0400,0,0,0,0
2026-05-06 22:00:00 -0400,0,0,0,0
2026-05-06 23:00:00 -0400,0,0,0,0
2026-05-07 00:00:00 -0400,0,0,0,0
2026-05-07 01:00:00 -0400,0,0,0,0
2026-05-07 02:00:00 -0400,0,0,0,0
2026-05-07 03:00:00 -0400,0,0,0,0
2026-05-07 04:00:00 -0400,0,0,0,0
2026-05-07 05:00:00 -0400,0,0,0,0
2026-05-07 06:00:00 -0400,0,0,0,0
2026-05-07 07:00:00 -0400,0,0,0,0
2026-05-07 08:00:00 -0400,0,0,0,0
2026-05-07 09:00:00 -0400,0,0,0,0
2026-05-07 10:00:00 -0400,0,0,0,0
2026-05-07 11:00:00 -0400,0,0,0,0
2026-05-07 12:00:00 -0400,0,0,0,0
2026-05-07 13:00:00 -0400,0,0,0,0
2026-05-07 14:00:00 -0400,0,0,0,0
2026-05-07 15:00:00 -0400,0,0,0,0
2026-05-07 16:00:00 -0400,0,0,0,0
2026-05-07 17:00:00 -0400,0,0,0,0
2026-05-07 18:00:00 -0400,0,0,0,0
2026-05-07 19:00:00 -0400,0,0,0,0
2026-05-07 20:00:00 -0400,0,0,0,0
2026-05-07 21:00:00 -0400,0,0,0,0
2026-05-07 22:00:00 -0400,0,0,0,0
2026-05-07 23:00:00 -0400,0,0,0,0
2026-05-08 00:00:00 -0400,0,0,0,0
2026-05-08 01:00:00 -0400,0,0,0,0
2026-05-08 02:00:00 -0400,0,0,0,0
2026-05-08 03:00:00 -0400,0,0,0,0
2026-05-08 04:00:00 -0400,0,0,0,0
2026-05-08 05:00:00 -0400,0,0,0,0
2026-05-08 06:00:00 -0400,0,0,0,0
2026-05-08 07:00:00 -0400,0,0,0,0
2026-05-08 08:00:00 -0400,0,0,0,0
2026-05-08 09:00:00 -0400,0,0,0,0
2026-05-08 10:00:00 -0400,0,0,0,0
2026-05-08 11:00:00 -0400,0,0,0,0
2026-05-08 12:00:00 -0400,0,0,0,0
2026-05-08 13:00:00 -0400,0,0,0,0
2026-05-08 14:00:00 -0400,0,0,0,0
2026-05-08 15:00:00 -0400,0,0,0,0
2026-05-08 16:00:00 -0400,0,0,0,0
2026-05-08 17:00:00 -0400,0,0,0,0
2026-05-08 18:00:00 -0400,0,0,0,0
2026-05-08 19:00:00 -0400,0,0,0,0
2026-05-08 20:00:00 -0400,0,0,0,0
2026-05-08 21:00:00 -0400,0,0,0,0
2026-05-08 22:00:00 -0400,0,0,0,0
2026-05-08 23:00:00 -0400,0,0,0,0
2026-05-09 00:00:00 -0400,0,0,0,0
2026-05-09 01:00:00 -0400,0,0,0,0
2026-05-09 02:00:00 -0400,0,0,0,0
2026-05-09 03:00:00 -0400,0,0,0,0
2026-05-09 04:00:00 -0400,0,0,0,0
2026-05-09 05:00:00 -0400,0,0,0,0
2026-05-09 06:00:00 -0400,0,0,0,0
2026-05-09 07:00:00 -0400,0,0,0,0
2026-05-09 08:00:00 -0400,0,0,0,0
2026-05-09 09:00:00 -0400,2,0,1,0
2026-05-09 10:00:00 -0400,0,0,0,0
2026-05-09 11:00:00 -0400,0,0,0,0
2026-05-09 12:00:00 -0400,0,0,0,0
2026-05-09 13:00:00 -0400,0,0,0,0
2026-05-09 14:00:00 -0400,0,0,0,0
2026-05-09 15:00:00 -0400,0,0,0,0
2026-05-09 16:00:00 -0400,1,0,0,0
2026-05-09 17:00:00 -0400,0,0,0,0
2026-05-09 18:00:00 -0400,0,0,0,0
2026-05-09 19:00:00 -0400,0,0,0,0
2026-05-09 20:00:00 -0400,0,0,0,0
2026-05-09 21:00:00 -0400,0,0,0,0
2026-05-09 22:00:00 -0400,0,0,0,0
2026-05-09 23:00:00 -0400,0,0,0,0
2026-05-10 00:00:00 -0400,0,0,0,0
2026-05-10 01:00:00 -0400,0,0,0,0
2026-05-10 02:00:00 -0400,0,0,0,0
2026-05-10 03:00:00 -0400,0,0,0,0
2026-05-10 04:00:00 -0400,0,0,0,0
2026-05-10 05:00:00 -0400,0,0,0,0
2026-05-10 06:00:00 -0400,0,0,0,0
2026-05-10 07:00:00 -0400,0,0,0,0
2026-05-10 08:00:00 -0400,0,0,0,0
2026-05-10 09:00:00 -0400,0,0,0,0
2026-05-10 10:00:00 -0400,0,0,0,0
2026-05-10 11:00:00 -0400,0,0,0,0
2026-05-10 12:00:00 -0400,0,0,0,0
2026-05-10 13:00:00 -0400,0,0,0,0
2026-05-10 14:00:00 -0400,0,0,0,0
2026-05-10 15:00:00 -0400,0,0,0,0
2026-05-10 16:00:00 -0400,0,0,0,0
2026-05-10 17:00:00 -0400,0,0,0,0
2026-05-10 18:00:00 -0400,0,0,0,0
2026-05-10 19:00:00 -0400,0,0,0,0
2026-05-10 20:00:00 -0400,0,0,0,0
2026-05-10 21:00:00 -0400,0,0,0,0
2026-05-10 22:00:00 -0400,0,0,0,0
2026-05-10 23:00:00 -0400,0,0,0,0
2026-05-11 00:00:00 -0400,0,0,0,0
2026-05-11 01:00:00 -0400,0,0,0,0
2026-05-11 02:00:00 -0400,0,0,0,0
2026-05-11 03:00:00 -0400,0,0,0,0
2026-05-11 04:00:00 -0400,0,0,0,0
2026-05-11 05:00:00 -0400,0,0,0,0
2026-05-11 06:00:00 -0400,0,0,0,0
2026-05-11 07:00:00 -0400,0,0,0,0
2026-05-11 08:00:00 -0400,0,0,0,0
2026-05-11 09:00:00 -0400,0,0,0,0
2026-05-11 10:00:00 -0400,0,0,0,0
2026-05-11 11:00:00 -0400,0,0,0,0
2026-05-11 12:00:00 -0400,0,0,0,0
2026-05-11 13:00:00 -0400,0,0,0,0
2026-05-11 14:00:00 -0400,0,0,0,0
2026-05-11 15:00:00 -0400,0,0,0,0
2026-05-11 16:00:00 -0400,0,0,0,0
2026-05-11 17:00:00 -0400,0,0,0,0
2026-05-11 18:00:00 -0400,0,0,0,0
2026-05-11 19:00:00 -0400,0,0,0,0
2026-05-11 20:00:00 -0400,0,0,0,0
2026-05-11 21:00:00 -0400,0,0,0,0
2026-05-11 22:00:00 -0400,0,0,0,0
2026-05-11 23:00:00 -0400,0,0,0,0
2026-05-12 00:00:00 -0400,0,0,0,0
2026-05-12 01:00:00 -0400,0,0,0,0
2026-05-12 02:00:00 -0400,0,0,0,0
2026-05-12 03:00:00 -0400,0,0,0,0
2026-05-12 04:00:00 -0400,0,0,0,0
2026-05-12 05:00:00 -0400,0,0,0,0
2026-05-12 06:00:00 -0400,0,0,0,0
2026-05-12 07:00:00 -0400,0,0,0,0
2026-05-12 08:00:00 -0400,0,0,0,0
2026-05-12 09:00:00 -0400,0,0,0,0
2026-05-12 10:00:00 -0400,0,0,0,0
2026-05-12 11:00:00 -0400,0,0,0,0
2026-05-12 12:00:00 -0400,0,0,0,0
2026-05-12 13:00:00 -0400,0,0,0,0
2026-05-12 14:00:00 -0400,0,0,0,0
2026-05-12 15:00:00 -0400,1,0,0,0
2026-05-12 16:00:00 -0400,0,0,0,0
2026-05-12 17:00:00 -0400,0,0,0,0
2026-05-12 18:00:00 -0400,0,0,0,0
2026-05-12 19:00:00 -0400,0,0,0,0
2026-05-12 20:00:00 -0400,0,0,0,0
2026-05-12 21:00:00 -0400,0,0,0,0
2026-05-12 22:00:00 -0400,0,0,0,0
2026-05-12 23:00:00 -0400,0,0,0,0
