"ATR 60. NJ 49  btwn S Bethel Rd & Center Grove Rd"
4/30/2026
11:30 AM
"12345678"
"87654321"
"NJ 49"
"btwn S Bethel Rd & Center Grove Rd"
39.406236
-75.103540
"Number","Date","Time","WB  NJ 49","EB  NJ 49"
1,4/30/2026,11:30 AM,2,3
2,4/30/2026,11:45 AM,64,82
3,4/30/2026,12:00 PM,93,67
4,4/30/2026,12:15 PM,85,78
5,4/30/2026,12:30 PM,100,70
6,4/30/2026,12:45 PM,85,77
7,4/30/2026,1:00 PM,102,84
8,4/30/2026,1:15 PM,93,92
9,4/30/2026,1:30 PM,97,61
10,4/30/2026,1:45 PM,108,50
11,4/30/2026,2:00 PM,113,80
12,4/30/2026,2:15 PM,86,67
13,4/30/2026,2:30 PM,132,108
14,4/30/2026,2:45 PM,99,115
15,4/30/2026,3:00 PM,115,115
16,4/30/2026,3:15 PM,128,138
17,4/30/2026,3:30 PM,120,117
18,4/30/2026,3:45 PM,179,165
19,4/30/2026,4:00 PM,149,132
20,4/30/2026,4:15 PM,176,121
21,4/30/2026,4:30 PM,178,126
22,4/30/2026,4:45 PM,164,139
23,4/30/2026,5:00 PM,133,139
24,4/30/2026,5:15 PM,141,142
25,4/30/2026,5:30 PM,122,129
26,4/30/2026,5:45 PM,114,105
27,4/30/2026,6:00 PM,125,101
28,4/30/2026,6:15 PM,114,94
29,4/30/2026,6:30 PM,82,92
30,4/30/2026,6:45 PM,103,69
31,4/30/2026,7:00 PM,73,88
32,4/30/2026,7:15 PM,76,85
33,4/30/2026,7:30 PM,80,60
34,4/30/2026,7:45 PM,66,65
35,4/30/2026,8:00 PM,85,69
36,4/30/2026,8:15 PM,94,59
37,4/30/2026,8:30 PM,84,47
38,4/30/2026,8:45 PM,64,39
39,4/30/2026,9:00 PM,65,40
40,4/30/2026,9:15 PM,55,50
41,4/30/2026,9:30 PM,33,36
42,4/30/2026,9:45 PM,63,49
43,4/30/2026,10:00 PM,42,34
44,4/30/2026,10:15 PM,37,31
45,4/30/2026,10:30 PM,31,22
46,4/30/2026,10:45 PM,23,35
47,4/30/2026,11:00 PM,19,18
48,4/30/2026,11:15 PM,28,20
49,4/30/2026,11:30 PM,18,34
50,4/30/2026,11:45 PM,17,13
51,5/1/2026,12:00 AM,20,16
52,5/1/2026,12:15 AM,23,10
53,5/1/2026,12:30 AM,8,7
54,5/1/2026,12:45 AM,12,7
55,5/1/2026,1:00 AM,16,8
56,5/1/2026,1:15 AM,9,6
57,5/1/2026,1:30 AM,9,7
58,5/1/2026,1:45 AM,8,3
59,5/1/2026,2:00 AM,6,3
60,5/1/2026,2:15 AM,7,4
61,5/1/2026,2:30 AM,5,7
62,5/1/2026,2:45 AM,4,5
63,5/1/2026,3:00 AM,3,8
64,5/1/2026,3:15 AM,10,6
65,5/1/2026,3:30 AM,11,14
66,5/1/2026,3:45 AM,8,18
67,5/1/2026,4:00 AM,7,7
68,5/1/2026,4:15 AM,13,8
69,5/1/2026,4:30 AM,20,26
70,5/1/2026,4:45 AM,17,28
71,5/1/2026,5:00 AM,24,14
72,5/1/2026,5:15 AM,44,28
73,5/1/2026,5:30 AM,41,46
74,5/1/2026,5:45 AM,57,63
75,5/1/2026,6:00 AM,56,60
76,5/1/2026,6:15 AM,82,58
77,5/1/2026,6:30 AM,118,85
78,5/1/2026,6:45 AM,108,104
79,5/1/2026,7:00 AM,120,106
80,5/1/2026,7:15 AM,160,105
81,5/1/2026,7:30 AM,208,123
82,5/1/2026,7:45 AM,137,109
83,5/1/2026,8:00 AM,124,95
84,5/1/2026,8:15 AM,125,94
85,5/1/2026,8:30 AM,110,91
86,5/1/2026,8:45 AM,94,87
87,5/1/2026,9:00 AM,81,128
88,5/1/2026,9:15 AM,84,82
89,5/1/2026,9:30 AM,101,123
90,5/1/2026,9:45 AM,92,79
91,5/1/2026,10:00 AM,110,88
92,5/1/2026,10:15 AM,100,70
93,5/1/2026,10:30 AM,81,90
94,5/1/2026,10:45 AM,100,90
95,5/1/2026,11:00 AM,85,97
96,5/1/2026,11:15 AM,93,71
97,5/1/2026,11:30 AM,110,95
98,5/1/2026,11:45 AM,135,89
99,5/1/2026,12:00 PM,94,85
100,5/1/2026,12:15 PM,109,87
101,5/1/2026,12:30 PM,97,98
102,5/1/2026,12:45 PM,110,88
103,5/1/2026,1:00 PM,95,112
104,5/1/2026,1:15 PM,108,108
105,5/1/2026,1:30 PM,103,86
106,5/1/2026,1:45 PM,126,93
107,5/1/2026,2:00 PM,109,96
108,5/1/2026,2:15 PM,117,101
109,5/1/2026,2:30 PM,132,114
110,5/1/2026,2:45 PM,126,121
111,5/1/2026,3:00 PM,133,121
112,5/1/2026,3:15 PM,116,146
113,5/1/2026,3:30 PM,127,124
114,5/1/2026,3:45 PM,168,147
115,5/1/2026,4:00 PM,136,134
116,5/1/2026,4:15 PM,154,133
117,5/1/2026,4:30 PM,146,139
118,5/1/2026,4:45 PM,155,152
119,5/1/2026,5:00 PM,122,133
120,5/1/2026,5:15 PM,130,126
121,5/1/2026,5:30 PM,101,109
122,5/1/2026,5:45 PM,107,90
123,5/1/2026,6:00 PM,90,100
124,5/1/2026,6:15 PM,111,97
125,5/1/2026,6:30 PM,113,83
126,5/1/2026,6:45 PM,109,96
127,5/1/2026,7:00 PM,91,66
128,5/1/2026,7:15 PM,104,96
129,5/1/2026,7:30 PM,69,72
130,5/1/2026,7:45 PM,70,80
131,5/1/2026,8:00 PM,80,61
132,5/1/2026,8:15 PM,76,60
133,5/1/2026,8:30 PM,79,63
134,5/1/2026,8:45 PM,73,58
135,5/1/2026,9:00 PM,73,44
136,5/1/2026,9:15 PM,62,47
137,5/1/2026,9:30 PM,62,50
138,5/1/2026,9:45 PM,53,54
139,5/1/2026,10:00 PM,59,35
140,5/1/2026,10:15 PM,48,34
141,5/1/2026,10:30 PM,42,41
142,5/1/2026,10:45 PM,31,34
143,5/1/2026,11:00 PM,27,29
144,5/1/2026,11:15 PM,39,31
145,5/1/2026,11:30 PM,29,41
146,5/1/2026,11:45 PM,15,16
147,5/2/2026,12:00 AM,39,11
148,5/2/2026,12:15 AM,27,27
149,5/2/2026,12:30 AM,20,15
150,5/2/2026,12:45 AM,20,10
151,5/2/2026,1:00 AM,11,6
152,5/2/2026,1:15 AM,5,16
153,5/2/2026,1:30 AM,10,11
154,5/2/2026,1:45 AM,8,4
155,5/2/2026,2:00 AM,12,2
156,5/2/2026,2:15 AM,10,9
157,5/2/2026,2:30 AM,2,4
158,5/2/2026,2:45 AM,10,4
159,5/2/2026,3:00 AM,5,4
160,5/2/2026,3:15 AM,3,6
161,5/2/2026,3:30 AM,7,12
162,5/2/2026,3:45 AM,8,15
163,5/2/2026,4:00 AM,7,13
164,5/2/2026,4:15 AM,8,9
165,5/2/2026,4:30 AM,7,13
166,5/2/2026,4:45 AM,10,12
167,5/2/2026,5:00 AM,17,14
168,5/2/2026,5:15 AM,17,12
169,5/2/2026,5:30 AM,29,29
170,5/2/2026,5:45 AM,25,20
171,5/2/2026,6:00 AM,22,21
172,5/2/2026,6:15 AM,26,30
173,5/2/2026,6:30 AM,32,41
174,5/2/2026,6:45 AM,31,41
175,5/2/2026,7:00 AM,28,35
176,5/2/2026,7:15 AM,54,49
177,5/2/2026,7:30 AM,46,51
178,5/2/2026,7:45 AM,56,65
179,5/2/2026,8:00 AM,63,59
180,5/2/2026,8:15 AM,60,64
181,5/2/2026,8:30 AM,71,65
182,5/2/2026,8:45 AM,71,58
183,5/2/2026,9:00 AM,63,69
184,5/2/2026,9:15 AM,81,69
185,5/2/2026,9:30 AM,68,61
186,5/2/2026,9:45 AM,80,86
187,5/2/2026,10:00 AM,71,64
188,5/2/2026,10:15 AM,86,90
189,5/2/2026,10:30 AM,94,75
190,5/2/2026,10:45 AM,90,80
191,5/2/2026,11:00 AM,91,75
192,5/2/2026,11:15 AM,104,77
193,5/2/2026,11:30 AM,106,98
194,5/2/2026,11:45 AM,109,100
195,5/2/2026,12:00 PM,106,92
196,5/2/2026,12:15 PM,106,119
197,5/2/2026,12:30 PM,87,104
198,5/2/2026,12:45 PM,84,110
199,5/2/2026,1:00 PM,98,73
200,5/2/2026,1:15 PM,112,103
201,5/2/2026,1:30 PM,85,108
202,5/2/2026,1:45 PM,93,96
203,5/2/2026,2:00 PM,117,84
204,5/2/2026,2:15 PM,114,73
205,5/2/2026,2:30 PM,93,106
206,5/2/2026,2:45 PM,103,77
207,5/2/2026,3:00 PM,92,105
208,5/2/2026,3:15 PM,94,100
209,5/2/2026,3:30 PM,106,95
210,5/2/2026,3:45 PM,87,92
211,5/2/2026,4:00 PM,115,81
212,5/2/2026,4:15 PM,89,86
213,5/2/2026,4:30 PM,119,75
214,5/2/2026,4:45 PM,94,90
215,5/2/2026,5:00 PM,87,74
216,5/2/2026,5:15 PM,102,76
217,5/2/2026,5:30 PM,80,80
218,5/2/2026,5:45 PM,74,75
219,5/2/2026,6:00 PM,111,66
220,5/2/2026,6:15 PM,86,69
221,5/2/2026,6:30 PM,66,68
222,5/2/2026,6:45 PM,82,60
223,5/2/2026,7:00 PM,69,66
224,5/2/2026,7:15 PM,73,69
225,5/2/2026,7:30 PM,74,68
226,5/2/2026,7:45 PM,76,47
227,5/2/2026,8:00 PM,68,60
228,5/2/2026,8:15 PM,77,43
229,5/2/2026,8:30 PM,60,45
230,5/2/2026,8:45 PM,60,56
231,5/2/2026,9:00 PM,67,43
232,5/2/2026,9:15 PM,40,41
233,5/2/2026,9:30 PM,53,32
234,5/2/2026,9:45 PM,37,38
235,5/2/2026,10:00 PM,47,36
236,5/2/2026,10:15 PM,38,37
237,5/2/2026,10:30 PM,43,23
238,5/2/2026,10:45 PM,26,31
239,5/2/2026,11:00 PM,38,29
240,5/2/2026,11:15 PM,46,30
241,5/2/2026,11:30 PM,22,34
242,5/2/2026,11:45 PM,18,25
243,5/3/2026,12:00 AM,27,20
244,5/3/2026,12:15 AM,28,10
245,5/3/2026,12:30 AM,28,13
246,5/3/2026,12:45 AM,15,9
247,5/3/2026,1:00 AM,20,10
248,5/3/2026,1:15 AM,15,7
249,5/3/2026,1:30 AM,11,3
250,5/3/2026,1:45 AM,16,6
251,5/3/2026,2:00 AM,7,4
252,5/3/2026,2:15 AM,12,6
253,5/3/2026,2:30 AM,7,4
254,5/3/2026,2:45 AM,8,3
255,5/3/2026,3:00 AM,4,8
256,5/3/2026,3:15 AM,6,9
257,5/3/2026,3:30 AM,7,2
258,5/3/2026,3:45 AM,7,5
259,5/3/2026,4:00 AM,4,6
260,5/3/2026,4:15 AM,7,1
261,5/3/2026,4:30 AM,5,4
262,5/3/2026,4:45 AM,8,8
263,5/3/2026,5:00 AM,8,9
264,5/3/2026,5:15 AM,12,6
265,5/3/2026,5:30 AM,22,17
266,5/3/2026,5:45 AM,19,12
267,5/3/2026,6:00 AM,18,11
268,5/3/2026,6:15 AM,19,23
269,5/3/2026,6:30 AM,25,24
270,5/3/2026,6:45 AM,15,28
271,5/3/2026,7:00 AM,26,27
272,5/3/2026,7:15 AM,29,31
273,5/3/2026,7:30 AM,32,41
274,5/3/2026,7:45 AM,39,30
275,5/3/2026,8:00 AM,28,33
276,5/3/2026,8:15 AM,49,35
277,5/3/2026,8:30 AM,44,49
278,5/3/2026,8:45 AM,46,44
279,5/3/2026,9:00 AM,47,42
280,5/3/2026,9:15 AM,68,49
281,5/3/2026,9:30 AM,67,61
282,5/3/2026,9:45 AM,47,70
283,5/3/2026,10:00 AM,59,63
284,5/3/2026,10:15 AM,77,79
285,5/3/2026,10:30 AM,65,72
286,5/3/2026,10:45 AM,65,71
287,5/3/2026,11:00 AM,71,64
288,5/3/2026,11:15 AM,64,82
289,5/3/2026,11:30 AM,83,72
290,5/3/2026,11:45 AM,82,80
291,5/3/2026,12:00 PM,95,82
292,5/3/2026,12:15 PM,80,80
293,5/3/2026,12:30 PM,86,97
294,5/3/2026,12:45 PM,97,87
295,5/3/2026,1:00 PM,102,80
296,5/3/2026,1:15 PM,87,87
297,5/3/2026,1:30 PM,93,96
298,5/3/2026,1:45 PM,115,74
299,5/3/2026,2:00 PM,96,101
300,5/3/2026,2:15 PM,89,100
301,5/3/2026,2:30 PM,85,69
302,5/3/2026,2:45 PM,108,75
303,5/3/2026,3:00 PM,84,77
304,5/3/2026,3:15 PM,93,86
305,5/3/2026,3:30 PM,108,93
306,5/3/2026,3:45 PM,86,72
307,5/3/2026,4:00 PM,101,72
308,5/3/2026,4:15 PM,77,88
309,5/3/2026,4:30 PM,92,64
310,5/3/2026,4:45 PM,75,67
311,5/3/2026,5:00 PM,97,58
312,5/3/2026,5:15 PM,99,63
313,5/3/2026,5:30 PM,75,57
314,5/3/2026,5:45 PM,70,65
315,5/3/2026,6:00 PM,90,67
316,5/3/2026,6:15 PM,77,52
317,5/3/2026,6:30 PM,64,69
318,5/3/2026,6:45 PM,72,54
319,5/3/2026,7:00 PM,80,69
320,5/3/2026,7:15 PM,68,66
321,5/3/2026,7:30 PM,50,46
322,5/3/2026,7:45 PM,56,48
323,5/3/2026,8:00 PM,63,54
324,5/3/2026,8:15 PM,60,43
325,5/3/2026,8:30 PM,59,37
326,5/3/2026,8:45 PM,43,50
327,5/3/2026,9:00 PM,41,41
328,5/3/2026,9:15 PM,30,32
329,5/3/2026,9:30 PM,35,26
330,5/3/2026,9:45 PM,29,34
331,5/3/2026,10:00 PM,25,26
332,5/3/2026,10:15 PM,37,30
333,5/3/2026,10:30 PM,21,21
334,5/3/2026,10:45 PM,16,19
335,5/3/2026,11:00 PM,24,19
336,5/3/2026,11:15 PM,17,24
337,5/3/2026,11:30 PM,25,15
338,5/3/2026,11:45 PM,20,5
339,5/4/2026,12:00 AM,9,8
340,5/4/2026,12:15 AM,9,11
341,5/4/2026,12:30 AM,8,7
342,5/4/2026,12:45 AM,5,5
343,5/4/2026,1:00 AM,3,11
344,5/4/2026,1:15 AM,8,5
345,5/4/2026,1:30 AM,5,3
346,5/4/2026,1:45 AM,6,4
347,5/4/2026,2:00 AM,5,1
348,5/4/2026,2:15 AM,7,2
349,5/4/2026,2:30 AM,3,5
350,5/4/2026,2:45 AM,5,5
351,5/4/2026,3:00 AM,7,4
352,5/4/2026,3:15 AM,4,8
353,5/4/2026,3:30 AM,8,13
354,5/4/2026,3:45 AM,9,17
355,5/4/2026,4:00 AM,10,9
356,5/4/2026,4:15 AM,12,9
357,5/4/2026,4:30 AM,20,21
358,5/4/2026,4:45 AM,18,20
359,5/4/2026,5:00 AM,27,29
360,5/4/2026,5:15 AM,36,35
361,5/4/2026,5:30 AM,64,49
362,5/4/2026,5:45 AM,62,58
363,5/4/2026,6:00 AM,48,55
364,5/4/2026,6:15 AM,79,59
365,5/4/2026,6:30 AM,110,72
366,5/4/2026,6:45 AM,86,85
367,5/4/2026,7:00 AM,132,87
368,5/4/2026,7:15 AM,132,100
369,5/4/2026,7:30 AM,157,98
370,5/4/2026,7:45 AM,151,101
371,5/4/2026,8:00 AM,121,85
372,5/4/2026,8:15 AM,137,89
373,5/4/2026,8:30 AM,81,73
374,5/4/2026,8:45 AM,104,88
375,5/4/2026,9:00 AM,94,72
376,5/4/2026,9:15 AM,88,69
377,5/4/2026,9:30 AM,76,75
378,5/4/2026,9:45 AM,74,74
379,5/4/2026,10:00 AM,85,82
380,5/4/2026,10:15 AM,62,73
381,5/4/2026,10:30 AM,22,33
382,5/4/2026,10:45 AM,46,43
383,5/4/2026,11:00 AM,93,70
384,5/4/2026,11:15 AM,80,81
385,5/4/2026,11:30 AM,98,83
386,5/4/2026,11:45 AM,83,76
387,5/4/2026,12:00 PM,87,85
388,5/4/2026,12:15 PM,82,91
389,5/4/2026,12:30 PM,89,75
390,5/4/2026,12:45 PM,94,80
391,5/4/2026,1:00 PM,114,78
392,5/4/2026,1:15 PM,94,90
393,5/4/2026,1:30 PM,92,90
394,5/4/2026,1:45 PM,110,88
395,5/4/2026,2:00 PM,106,88
396,5/4/2026,2:15 PM,113,102
397,5/4/2026,2:30 PM,117,102
398,5/4/2026,2:45 PM,129,107
399,5/4/2026,3:00 PM,133,124
400,5/4/2026,3:15 PM,127,142
401,5/4/2026,3:30 PM,127,125
402,5/4/2026,3:45 PM,133,133
403,5/4/2026,4:00 PM,151,137
404,5/4/2026,4:15 PM,125,136
405,5/4/2026,4:30 PM,145,127
406,5/4/2026,4:45 PM,146,157
407,5/4/2026,5:00 PM,121,127
408,5/4/2026,5:15 PM,117,137
409,5/4/2026,5:30 PM,104,106
410,5/4/2026,5:45 PM,120,104
411,5/4/2026,6:00 PM,111,95
412,5/4/2026,6:15 PM,90,85
413,5/4/2026,6:30 PM,96,68
414,5/4/2026,6:45 PM,71,70
415,5/4/2026,7:00 PM,71,70
416,5/4/2026,7:15 PM,72,67
417,5/4/2026,7:30 PM,76,61
418,5/4/2026,7:45 PM,63,47
419,5/4/2026,8:00 PM,53,55
420,5/4/2026,8:15 PM,64,57
421,5/4/2026,8:30 PM,51,50
422,5/4/2026,8:45 PM,57,40
423,5/4/2026,9:00 PM,52,27
424,5/4/2026,9:15 PM,50,50
425,5/4/2026,9:30 PM,53,37
426,5/4/2026,9:45 PM,48,23
427,5/4/2026,10:00 PM,33,16
428,5/4/2026,10:15 PM,26,20
429,5/4/2026,10:30 PM,25,22
430,5/4/2026,10:45 PM,22,26
431,5/4/2026,11:00 PM,33,23
432,5/4/2026,11:15 PM,25,23
433,5/4/2026,11:30 PM,23,22
434,5/4/2026,11:45 PM,15,13
435,5/5/2026,12:00 AM,22,10
436,5/5/2026,12:15 AM,21,11
437,5/5/2026,12:30 AM,10,6
438,5/5/2026,12:45 AM,8,8
439,5/5/2026,1:00 AM,10,3
440,5/5/2026,1:15 AM,14,5
441,5/5/2026,1:30 AM,5,3
442,5/5/2026,1:45 AM,8,8
443,5/5/2026,2:00 AM,4,4
444,5/5/2026,2:15 AM,6,4
445,5/5/2026,2:30 AM,5,14
446,5/5/2026,2:45 AM,4,6
447,5/5/2026,3:00 AM,5,3
448,5/5/2026,3:15 AM,7,11
449,5/5/2026,3:30 AM,12,13
450,5/5/2026,3:45 AM,9,16
451,5/5/2026,4:00 AM,10,5
452,5/5/2026,4:15 AM,11,8
453,5/5/2026,4:30 AM,22,24
454,5/5/2026,4:45 AM,27,26
455,5/5/2026,5:00 AM,32,26
456,5/5/2026,5:15 AM,37,29
457,5/5/2026,5:30 AM,59,61
458,5/5/2026,5:45 AM,59,59
459,5/5/2026,6:00 AM,64,57
460,5/5/2026,6:15 AM,67,54
461,5/5/2026,6:30 AM,111,62
462,5/5/2026,6:45 AM,108,100
463,5/5/2026,7:00 AM,122,85
464,5/5/2026,7:15 AM,145,119
465,5/5/2026,7:30 AM,153,90
466,5/5/2026,7:45 AM,130,116
467,5/5/2026,8:00 AM,142,85
468,5/5/2026,8:15 AM,140,76
469,5/5/2026,8:30 AM,143,84
470,5/5/2026,8:45 AM,97,94
471,5/5/2026,9:00 AM,83,77
472,5/5/2026,9:15 AM,70,75
473,5/5/2026,9:30 AM,89,91
474,5/5/2026,9:45 AM,77,71
475,5/5/2026,10:00 AM,88,73
476,5/5/2026,10:15 AM,89,71
477,5/5/2026,10:30 AM,87,69
478,5/5/2026,10:45 AM,78,82
479,5/5/2026,11:00 AM,87,60
480,5/5/2026,11:15 AM,74,74
481,5/5/2026,11:30 AM,92,80
482,5/5/2026,11:45 AM,98,84
483,5/5/2026,12:00 PM,94,92
484,5/5/2026,12:15 PM,87,78
485,5/5/2026,12:30 PM,85,84
486,5/5/2026,12:45 PM,79,78
487,5/5/2026,1:00 PM,93,73
488,5/5/2026,1:15 PM,109,79
489,5/5/2026,1:30 PM,99,98
490,5/5/2026,1:45 PM,123,87
491,5/5/2026,2:00 PM,96,105
492,5/5/2026,2:15 PM,110,106
493,5/5/2026,2:30 PM,135,114
494,5/5/2026,2:45 PM,154,112
495,5/5/2026,3:00 PM,118,111
496,5/5/2026,3:15 PM,117,135
497,5/5/2026,3:30 PM,162,124
498,5/5/2026,3:45 PM,160,165
499,5/5/2026,4:00 PM,126,163
500,5/5/2026,4:15 PM,157,135
501,5/5/2026,4:30 PM,165,146
502,5/5/2026,4:45 PM,140,113
503,5/5/2026,5:00 PM,131,125
504,5/5/2026,5:15 PM,127,140
505,5/5/2026,5:30 PM,116,110
506,5/5/2026,5:45 PM,120,108
507,5/5/2026,6:00 PM,111,98
508,5/5/2026,6:15 PM,100,98
509,5/5/2026,6:30 PM,106,67
510,5/5/2026,6:45 PM,80,74
511,5/5/2026,7:00 PM,87,63
512,5/5/2026,7:15 PM,84,71
513,5/5/2026,7:30 PM,59,63
514,5/5/2026,7:45 PM,50,51
515,5/5/2026,8:00 PM,68,56
516,5/5/2026,8:15 PM,76,47
517,5/5/2026,8:30 PM,47,64
518,5/5/2026,8:45 PM,53,64
519,5/5/2026,9:00 PM,59,54
520,5/5/2026,9:15 PM,40,31
521,5/5/2026,9:30 PM,57,31
522,5/5/2026,9:45 PM,43,30
523,5/5/2026,10:00 PM,43,34
524,5/5/2026,10:15 PM,33,28
525,5/5/2026,10:30 PM,30,21
526,5/5/2026,10:45 PM,21,27
527,5/5/2026,11:00 PM,19,16
528,5/5/2026,11:15 PM,22,22
529,5/5/2026,11:30 PM,18,25
530,5/5/2026,11:45 PM,19,22
531,5/6/2026,12:00 AM,23,3
532,5/6/2026,12:15 AM,14,16
533,5/6/2026,12:30 AM,8,12
534,5/6/2026,12:45 AM,5,9
535,5/6/2026,1:00 AM,12,6
536,5/6/2026,1:15 AM,5,10
537,5/6/2026,1:30 AM,14,5
538,5/6/2026,1:45 AM,7,5
539,5/6/2026,2:00 AM,10,2
540,5/6/2026,2:15 AM,5,10
541,5/6/2026,2:30 AM,4,7
542,5/6/2026,2:45 AM,10,7
543,5/6/2026,3:00 AM,4,8
544,5/6/2026,3:15 AM,6,5
545,5/6/2026,3:30 AM,8,15
546,5/6/2026,3:45 AM,6,21
547,5/6/2026,4:00 AM,9,12
548,5/6/2026,4:15 AM,14,10
549,5/6/2026,4:30 AM,17,21
550,5/6/2026,4:45 AM,24,16
551,5/6/2026,5:00 AM,29,26
552,5/6/2026,5:15 AM,42,28
553,5/6/2026,5:30 AM,36,49
554,5/6/2026,5:45 AM,57,63
555,5/6/2026,6:00 AM,47,51
556,5/6/2026,6:15 AM,82,58
557,5/6/2026,6:30 AM,90,66
558,5/6/2026,6:45 AM,88,100
559,5/6/2026,7:00 AM,122,80
560,5/6/2026,7:15 AM,141,106
561,5/6/2026,7:30 AM,142,99
562,5/6/2026,7:45 AM,107,91
563,5/6/2026,8:00 AM,131,81
564,5/6/2026,8:15 AM,136,72
565,5/6/2026,8:30 AM,86,84
566,5/6/2026,8:45 AM,106,87
567,5/6/2026,9:00 AM,97,61
568,5/6/2026,9:15 AM,77,61
569,5/6/2026,9:30 AM,83,65
570,5/6/2026,9:45 AM,74,62
571,5/6/2026,10:00 AM,59,66
572,5/6/2026,10:15 AM,57,68
573,5/6/2026,10:30 AM,57,69
574,5/6/2026,10:45 AM,84,65
575,5/6/2026,11:00 AM,70,78
576,5/6/2026,11:15 AM,73,69
577,5/6/2026,11:30 AM,78,68
578,5/6/2026,11:45 AM,75,72
579,5/6/2026,12:00 PM,67,83
580,5/6/2026,12:15 PM,73,70
581,5/6/2026,12:30 PM,88,81
582,5/6/2026,12:45 PM,91,79
583,5/6/2026,1:00 PM,75,82
584,5/6/2026,1:15 PM,101,99
585,5/6/2026,1:30 PM,96,88
586,5/6/2026,1:45 PM,100,102
587,5/6/2026,2:00 PM,125,90
588,5/6/2026,2:15 PM,98,95
589,5/6/2026,2:30 PM,96,110
590,5/6/2026,2:45 PM,117,110
591,5/6/2026,3:00 PM,90,100
592,5/6/2026,3:15 PM,122,123
593,5/6/2026,3:30 PM,115,135
594,5/6/2026,3:45 PM,125,119
595,5/6/2026,4:00 PM,118,117
596,5/6/2026,4:15 PM,123,109
597,5/6/2026,4:30 PM,137,105
598,5/6/2026,4:45 PM,112,120
599,5/6/2026,5:00 PM,103,114
600,5/6/2026,5:15 PM,105,121
601,5/6/2026,5:30 PM,84,102
602,5/6/2026,5:45 PM,93,69
603,5/6/2026,6:00 PM,89,68
604,5/6/2026,6:15 PM,96,69
605,5/6/2026,6:30 PM,82,64
606,5/6/2026,6:45 PM,83,68
607,5/6/2026,7:00 PM,69,58
608,5/6/2026,7:15 PM,65,82
609,5/6/2026,7:30 PM,64,52
610,5/6/2026,7:45 PM,38,67
611,5/6/2026,8:00 PM,60,42
612,5/6/2026,8:15 PM,73,75
613,5/6/2026,8:30 PM,72,34
614,5/6/2026,8:45 PM,54,39
615,5/6/2026,9:00 PM,58,36
616,5/6/2026,9:15 PM,54,36
617,5/6/2026,9:30 PM,46,25
618,5/6/2026,9:45 PM,38,29
619,5/6/2026,10:00 PM,38,28
620,5/6/2026,10:15 PM,31,41
621,5/6/2026,10:30 PM,25,22
622,5/6/2026,10:45 PM,28,22
623,5/6/2026,11:00 PM,24,24
624,5/6/2026,11:15 PM,18,19
625,5/6/2026,11:30 PM,20,23
626,5/6/2026,11:45 PM,10,11
627,5/7/2026,12:00 AM,16,13
628,5/7/2026,12:15 AM,23,14
629,5/7/2026,12:30 AM,8,6
630,5/7/2026,12:45 AM,9,5
631,5/7/2026,1:00 AM,5,3
632,5/7/2026,1:15 AM,9,5
633,5/7/2026,1:30 AM,9,3
634,5/7/2026,1:45 AM,4,4
635,5/7/2026,2:00 AM,8,3
636,5/7/2026,2:15 AM,6,6
637,5/7/2026,2:30 AM,3,10
638,5/7/2026,2:45 AM,5,2
639,5/7/2026,3:00 AM,6,6
640,5/7/2026,3:15 AM,4,7
641,5/7/2026,3:30 AM,8,11
642,5/7/2026,3:45 AM,11,18
643,5/7/2026,4:00 AM,7,10
644,5/7/2026,4:15 AM,18,10
645,5/7/2026,4:30 AM,14,16
646,5/7/2026,4:45 AM,24,18
647,5/7/2026,5:00 AM,24,14
648,5/7/2026,5:15 AM,28,31
649,5/7/2026,5:30 AM,43,52
650,5/7/2026,5:45 AM,49,64
651,5/7/2026,6:00 AM,55,45
652,5/7/2026,6:15 AM,63,62
653,5/7/2026,6:30 AM,85,72
654,5/7/2026,6:45 AM,93,87
655,5/7/2026,7:00 AM,119,77
656,5/7/2026,7:15 AM,121,91
657,5/7/2026,7:30 AM,138,108
658,5/7/2026,7:45 AM,117,80
659,5/7/2026,8:00 AM,120,96
660,5/7/2026,8:15 AM,122,86
661,5/7/2026,8:30 AM,97,72
662,5/7/2026,8:45 AM,101,85
663,5/7/2026,9:00 AM,95,68
664,5/7/2026,9:15 AM,79,68
665,5/7/2026,9:30 AM,78,73
666,5/7/2026,9:45 AM,53,76
667,5/7/2026,10:00 AM,67,70
668,5/7/2026,10:15 AM,67,77
669,5/7/2026,10:30 AM,81,49
670,5/7/2026,10:45 AM,66,69
671,5/7/2026,11:00 AM,80,69
672,5/7/2026,11:15 AM,78,55
673,5/7/2026,11:30 AM,70,69
674,5/7/2026,11:45 AM,83,62
675,5/7/2026,12:00 PM,64,79
676,5/7/2026,12:15 PM,73,77
677,5/7/2026,12:30 PM,68,66
678,5/7/2026,12:45 PM,86,85
679,5/7/2026,1:00 PM,81,68
680,5/7/2026,1:15 PM,79,64
681,5/7/2026,1:30 PM,104,72
682,5/7/2026,1:45 PM,83,62
683,5/7/2026,2:00 PM,112,85
684,5/7/2026,2:15 PM,87,93
685,5/7/2026,2:30 PM,98,107
686,5/7/2026,2:45 PM,131,105
687,5/7/2026,3:00 PM,103,113
688,5/7/2026,3:15 PM,111,122
689,5/7/2026,3:30 PM,117,115
690,5/7/2026,3:45 PM,137,121
691,5/7/2026,4:00 PM,142,118
692,5/7/2026,4:15 PM,125,142
693,5/7/2026,4:30 PM,125,122
694,5/7/2026,4:45 PM,129,123
695,5/7/2026,5:00 PM,102,109
696,5/7/2026,5:15 PM,112,119
697,5/7/2026,5:30 PM,107,96
698,5/7/2026,5:45 PM,94,74
699,5/7/2026,6:00 PM,87,78
700,5/7/2026,6:15 PM,110,91
701,5/7/2026,6:30 PM,87,61
702,5/7/2026,6:45 PM,72,68
703,5/7/2026,7:00 PM,64,59
704,5/7/2026,7:15 PM,64,71
705,5/7/2026,7:30 PM,69,52
706,5/7/2026,7:45 PM,69,56
707,5/7/2026,8:00 PM,55,44
708,5/7/2026,8:15 PM,64,53
709,5/7/2026,8:30 PM,64,51
710,5/7/2026,8:45 PM,40,40
711,5/7/2026,9:00 PM,57,31
712,5/7/2026,9:15 PM,45,31
713,5/7/2026,9:30 PM,40,24
714,5/7/2026,9:45 PM,43,46
715,5/7/2026,10:00 PM,36,34
716,5/7/2026,10:15 PM,36,28
717,5/7/2026,10:30 PM,26,20
718,5/7/2026,10:45 PM,29,21
719,5/7/2026,11:00 PM,23,19
720,5/7/2026,11:15 PM,28,18
721,5/7/2026,11:30 PM,16,20
722,5/7/2026,11:45 PM,14,21
723,5/8/2026,12:00 AM,23,12
724,5/8/2026,12:15 AM,12,14
725,5/8/2026,12:30 AM,13,8
726,5/8/2026,12:45 AM,21,5
727,5/8/2026,1:00 AM,6,10
728,5/8/2026,1:15 AM,11,8
729,5/8/2026,1:30 AM,6,8
730,5/8/2026,1:45 AM,3,8
731,5/8/2026,2:00 AM,8,1
732,5/8/2026,2:15 AM,4,4
733,5/8/2026,2:30 AM,4,6
734,5/8/2026,2:45 AM,7,7
735,5/8/2026,3:00 AM,7,4
736,5/8/2026,3:15 AM,6,7
737,5/8/2026,3:30 AM,11,11
738,5/8/2026,3:45 AM,6,15
739,5/8/2026,4:00 AM,9,6
740,5/8/2026,4:15 AM,9,8
741,5/8/2026,4:30 AM,20,18
742,5/8/2026,4:45 AM,22,8
743,5/8/2026,5:00 AM,32,17
744,5/8/2026,5:15 AM,24,33
745,5/8/2026,5:30 AM,47,57
746,5/8/2026,5:45 AM,52,39
747,5/8/2026,6:00 AM,48,43
748,5/8/2026,6:15 AM,59,55
749,5/8/2026,6:30 AM,80,74
750,5/8/2026,6:45 AM,74,93
751,5/8/2026,7:00 AM,135,76
752,5/8/2026,7:15 AM,94,78
753,5/8/2026,7:30 AM,127,117
754,5/8/2026,7:45 AM,119,81
755,5/8/2026,8:00 AM,121,88
756,5/8/2026,8:15 AM,122,83
757,5/8/2026,8:30 AM,107,87
758,5/8/2026,8:45 AM,82,68
759,5/8/2026,9:00 AM,75,80
760,5/8/2026,9:15 AM,80,88
761,5/8/2026,9:30 AM,78,70
762,5/8/2026,9:45 AM,86,69
763,5/8/2026,10:00 AM,76,68
764,5/8/2026,10:15 AM,65,80
765,5/8/2026,10:30 AM,83,79
766,5/8/2026,10:45 AM,80,78
767,5/8/2026,11:00 AM,2,5
768,5/8/2026,11:15 AM,0,0
769,5/8/2026,11:30 AM,0,0
770,5/8/2026,11:45 AM,0,0
771,5/8/2026,12:00 PM,0,0
772,5/8/2026,12:15 PM,1,0
773,5/8/2026,12:30 PM,0,0
774,5/8/2026,12:45 PM,0,0
