"ATR 60. NJ 49  btwn S Bethel Rd & Center Grove Rd"
4/30/2026
11:00 AM
"12345678"
"87654321"
"NJ 49"
"btwn S Bethel Rd & Center Grove Rd"
39.406236
-75.103540
"Number","Date","Time","WB  NJ 49","EB  NJ 49"
1,4/30/2026,11:00 AM,66,85
2,4/30/2026,12:00 PM,363,292
3,4/30/2026,1:00 PM,400,287
4,4/30/2026,2:00 PM,430,370
5,4/30/2026,3:00 PM,542,535
6,4/30/2026,4:00 PM,667,518
7,4/30/2026,5:00 PM,510,515
8,4/30/2026,6:00 PM,424,356
9,4/30/2026,7:00 PM,295,298
10,4/30/2026,8:00 PM,327,214
11,4/30/2026,9:00 PM,216,175
12,4/30/2026,10:00 PM,133,122
13,4/30/2026,11:00 PM,82,85
14,5/1/2026,12:00 AM,63,40
15,5/1/2026,1:00 AM,42,24
16,5/1/2026,2:00 AM,22,19
17,5/1/2026,3:00 AM,32,46
18,5/1/2026,4:00 AM,57,69
19,5/1/2026,5:00 AM,166,151
20,5/1/2026,6:00 AM,364,307
21,5/1/2026,7:00 AM,625,443
22,5/1/2026,8:00 AM,453,367
23,5/1/2026,9:00 AM,358,412
24,5/1/2026,10:00 AM,391,338
25,5/1/2026,11:00 AM,423,352
26,5/1/2026,12:00 PM,410,358
27,5/1/2026,1:00 PM,432,399
28,5/1/2026,2:00 PM,484,432
29,5/1/2026,3:00 PM,544,538
30,5/1/2026,4:00 PM,591,558
31,5/1/2026,5:00 PM,460,458
32,5/1/2026,6:00 PM,423,376
33,5/1/2026,7:00 PM,334,314
34,5/1/2026,8:00 PM,308,242
35,5/1/2026,9:00 PM,250,195
36,5/1/2026,10:00 PM,180,144
37,5/1/2026,11:00 PM,110,117
38,5/2/2026,12:00 AM,106,63
39,5/2/2026,1:00 AM,34,37
40,5/2/2026,2:00 AM,34,19
41,5/2/2026,3:00 AM,23,37
42,5/2/2026,4:00 AM,32,47
43,5/2/2026,5:00 AM,88,75
44,5/2/2026,6:00 AM,111,133
45,5/2/2026,7:00 AM,184,200
46,5/2/2026,8:00 AM,265,246
47,5/2/2026,9:00 AM,292,285
48,5/2/2026,10:00 AM,341,309
49,5/2/2026,11:00 AM,410,350
50,5/2/2026,12:00 PM,383,425
51,5/2/2026,1:00 PM,388,380
52,5/2/2026,2:00 PM,427,340
53,5/2/2026,3:00 PM,379,392
54,5/2/2026,4:00 PM,417,332
55,5/2/2026,5:00 PM,343,305
56,5/2/2026,6:00 PM,345,263
57,5/2/2026,7:00 PM,292,250
58,5/2/2026,8:00 PM,265,204
59,5/2/2026,9:00 PM,197,154
60,5/2/2026,10:00 PM,154,127
61,5/2/2026,11:00 PM,124,118
62,5/3/2026,12:00 AM,98,52
63,5/3/2026,1:00 AM,62,26
64,5/3/2026,2:00 AM,34,17
65,5/3/2026,3:00 AM,24,24
66,5/3/2026,4:00 AM,24,19
67,5/3/2026,5:00 AM,61,44
68,5/3/2026,6:00 AM,77,86
69,5/3/2026,7:00 AM,126,129
70,5/3/2026,8:00 AM,167,161
71,5/3/2026,9:00 AM,229,222
72,5/3/2026,10:00 AM,266,285
73,5/3/2026,11:00 AM,300,298
74,5/3/2026,12:00 PM,358,346
75,5/3/2026,1:00 PM,397,337
76,5/3/2026,2:00 PM,378,345
77,5/3/2026,3:00 PM,371,328
78,5/3/2026,4:00 PM,345,291
79,5/3/2026,5:00 PM,341,243
80,5/3/2026,6:00 PM,303,242
81,5/3/2026,7:00 PM,254,229
82,5/3/2026,8:00 PM,225,184
83,5/3/2026,9:00 PM,135,133
84,5/3/2026,10:00 PM,99,96
85,5/3/2026,11:00 PM,86,63
86,5/4/2026,12:00 AM,31,31
87,5/4/2026,1:00 AM,22,23
88,5/4/2026,2:00 AM,20,13
89,5/4/2026,3:00 AM,28,42
90,5/4/2026,4:00 AM,60,59
91,5/4/2026,5:00 AM,189,171
92,5/4/2026,6:00 AM,323,271
93,5/4/2026,7:00 AM,572,386
94,5/4/2026,8:00 AM,443,335
95,5/4/2026,9:00 AM,332,290
96,5/4/2026,10:00 AM,215,231
97,5/4/2026,11:00 AM,354,310
98,5/4/2026,12:00 PM,352,331
99,5/4/2026,1:00 PM,410,346
100,5/4/2026,2:00 PM,465,399
101,5/4/2026,3:00 PM,520,524
102,5/4/2026,4:00 PM,567,557
103,5/4/2026,5:00 PM,462,474
104,5/4/2026,6:00 PM,368,318
105,5/4/2026,7:00 PM,282,245
106,5/4/2026,8:00 PM,225,202
107,5/4/2026,9:00 PM,203,137
108,5/4/2026,10:00 PM,106,84
109,5/4/2026,11:00 PM,96,81
110,5/5/2026,12:00 AM,61,35
111,5/5/2026,1:00 AM,37,19
112,5/5/2026,2:00 AM,19,28
113,5/5/2026,3:00 AM,33,43
114,5/5/2026,4:00 AM,70,63
115,5/5/2026,5:00 AM,187,175
116,5/5/2026,6:00 AM,350,273
117,5/5/2026,7:00 AM,550,410
118,5/5/2026,8:00 AM,522,339
119,5/5/2026,9:00 AM,319,314
120,5/5/2026,10:00 AM,342,295
121,5/5/2026,11:00 AM,351,298
122,5/5/2026,12:00 PM,345,332
123,5/5/2026,1:00 PM,424,337
124,5/5/2026,2:00 PM,495,437
125,5/5/2026,3:00 PM,557,535
126,5/5/2026,4:00 PM,588,557
127,5/5/2026,5:00 PM,494,483
128,5/5/2026,6:00 PM,397,337
129,5/5/2026,7:00 PM,280,248
130,5/5/2026,8:00 PM,244,231
131,5/5/2026,9:00 PM,199,146
132,5/5/2026,10:00 PM,127,110
133,5/5/2026,11:00 PM,78,85
134,5/6/2026,12:00 AM,50,40
135,5/6/2026,1:00 AM,38,26
136,5/6/2026,2:00 AM,29,26
137,5/6/2026,3:00 AM,24,49
138,5/6/2026,4:00 AM,64,59
139,5/6/2026,5:00 AM,164,166
140,5/6/2026,6:00 AM,307,275
141,5/6/2026,7:00 AM,512,376
142,5/6/2026,8:00 AM,459,324
143,5/6/2026,9:00 AM,331,249
144,5/6/2026,10:00 AM,257,268
145,5/6/2026,11:00 AM,296,287
146,5/6/2026,12:00 PM,319,313
147,5/6/2026,1:00 PM,372,371
148,5/6/2026,2:00 PM,436,405
149,5/6/2026,3:00 PM,452,477
150,5/6/2026,4:00 PM,490,451
151,5/6/2026,5:00 PM,385,406
152,5/6/2026,6:00 PM,350,269
153,5/6/2026,7:00 PM,236,259
154,5/6/2026,8:00 PM,259,190
155,5/6/2026,9:00 PM,196,126
156,5/6/2026,10:00 PM,122,113
157,5/6/2026,11:00 PM,72,77
158,5/7/2026,12:00 AM,56,38
159,5/7/2026,1:00 AM,27,15
160,5/7/2026,2:00 AM,22,21
161,5/7/2026,3:00 AM,29,42
162,5/7/2026,4:00 AM,63,54
163,5/7/2026,5:00 AM,144,161
164,5/7/2026,6:00 AM,296,266
165,5/7/2026,7:00 AM,495,356
166,5/7/2026,8:00 AM,440,339
167,5/7/2026,9:00 AM,305,285
168,5/7/2026,10:00 AM,281,265
169,5/7/2026,11:00 AM,311,255
170,5/7/2026,12:00 PM,291,307
171,5/7/2026,1:00 PM,347,266
172,5/7/2026,2:00 PM,428,390
173,5/7/2026,3:00 PM,468,471
174,5/7/2026,4:00 PM,521,505
175,5/7/2026,5:00 PM,415,398
176,5/7/2026,6:00 PM,356,298
177,5/7/2026,7:00 PM,266,238
178,5/7/2026,8:00 PM,223,188
179,5/7/2026,9:00 PM,185,132
180,5/7/2026,10:00 PM,127,103
181,5/7/2026,11:00 PM,81,78
182,5/8/2026,12:00 AM,69,39
183,5/8/2026,1:00 AM,26,34
184,5/8/2026,2:00 AM,23,18
185,5/8/2026,3:00 AM,30,37
186,5/8/2026,4:00 AM,60,40
187,5/8/2026,5:00 AM,155,146
188,5/8/2026,6:00 AM,261,265
189,5/8/2026,7:00 AM,475,352
190,5/8/2026,8:00 AM,432,326
191,5/8/2026,9:00 AM,319,307
192,5/8/2026,10:00 AM,304,305
193,5/8/2026,11:00 AM,2,5
194,5/8/2026,12:00 PM,1,0
