Summary,,,,,,,,
Study Name,"ATR 33. NJ 147, N Wildwood Boulevard, West of the Old Wildwood Boulevard Jug Handle",,,,,,,
Project,SJTPO: T-1030051: Data Collection Program,,,,,,,
Project Code,T-1030051,,,,,,,
Channel Granularity,By Lanes,,,,,,,
Bin Size,1 hour,,,,,,,
Time Zone,America/New_York,,,,,,,
Start Time,5/15/2026 0:00,,,,,,,
End Time,5/22/2026 0:00,,,,,,,
Location,SJTPO ATR 33,,,,,,,
Latitude and Longitude,"39.032357,-74.821724",,,,,,,
,,,,,,,,
PM Peak,May 15 2026  2:15PM - 3:15 PM (0.960),,,,,,,
PM Peak (WKND),May 16 2026  1:15PM - 2:15 PM (0.940),,,,,,,
AM Peak (WKND),May 17 2026 10AM - 11 AM (0.864),,,,,,,
Midday Peak (WKND) (Overall Peak Hour),May 17 2026 11:30AM - 12:30 PM (0.977),,,,,,,
AM Peak,May 21 2026 10AM - 11 AM (0.906),,,,,,,
Midday Peak,May 21 2026  1PM - 2 PM (0.914),,,,,,,
Motorcycles,,,,,,,,
Entry,n/a,,,n/a,,,,
Direction,Eastbound,,,Westbound,,,,
Start Time,Lane 1,Lane 2,Lane 3,Lane 1,Lane 2,,EB Sum,WB Sum
5/15/2026 0:00,0,0,0,0,0,,0,0
5/15/2026 1:00,0,0,0,0,0,,0,0
5/15/2026 2:00,0,0,0,0,0,,0,0
5/15/2026 3:00,0,0,0,0,0,,0,0
5/15/2026 4:00,0,0,0,0,0,,0,0
5/15/2026 5:00,0,0,0,0,0,,0,0
5/15/2026 6:00,0,0,0,0,0,,0,0
5/15/2026 7:00,0,0,0,0,0,,0,0
5/15/2026 8:00,0,1,0,1,0,,1,1
5/15/2026 9:00,0,0,0,0,0,,0,0
5/15/2026 10:00,0,0,0,1,0,,0,1
5/15/2026 11:00,0,0,0,1,0,,0,1
5/15/2026 12:00,0,0,0,0,0,,0,0
5/15/2026 13:00,0,1,0,0,0,,1,0
5/15/2026 14:00,0,1,0,0,0,,1,0
5/15/2026 15:00,0,1,0,0,0,,1,0
5/15/2026 16:00,0,0,0,1,0,,0,1
5/15/2026 17:00,0,0,0,0,0,,0,0
5/15/2026 18:00,0,0,1,0,1,,1,1
5/15/2026 19:00,0,0,0,0,0,,0,0
5/15/2026 20:00,0,2,1,0,0,,3,0
5/15/2026 21:00,0,0,0,0,0,,0,0
5/15/2026 22:00,0,0,0,0,0,,0,0
5/15/2026 23:00,0,0,0,0,0,,0,0
5/16/2026 0:00,0,0,0,0,0,,0,0
5/16/2026 1:00,0,0,0,1,0,,0,1
5/16/2026 2:00,0,0,0,0,0,,0,0
5/16/2026 3:00,0,0,0,0,0,,0,0
5/16/2026 4:00,0,0,0,0,0,,0,0
5/16/2026 5:00,1,0,0,0,0,,1,0
5/16/2026 6:00,0,0,0,1,0,,0,1
5/16/2026 7:00,1,1,0,0,2,,2,2
5/16/2026 8:00,0,0,0,0,0,,0,0
5/16/2026 9:00,0,0,0,0,0,,0,0
5/16/2026 10:00,0,1,0,1,0,,1,1
5/16/2026 11:00,0,1,1,1,2,,2,3
5/16/2026 12:00,0,1,7,3,1,,8,4
5/16/2026 13:00,0,2,1,1,1,,3,2
5/16/2026 14:00,0,0,0,0,1,,0,1
5/16/2026 15:00,0,0,1,0,4,,1,4
5/16/2026 16:00,0,1,1,1,1,,2,2
5/16/2026 17:00,0,2,0,0,1,,2,1
5/16/2026 18:00,0,0,1,1,0,,1,1
5/16/2026 19:00,0,1,0,3,2,,1,5
5/16/2026 20:00,0,1,1,0,0,,2,0
5/16/2026 21:00,0,0,0,0,0,,0,0
5/16/2026 22:00,0,0,0,1,0,,0,1
5/16/2026 23:00,0,0,0,0,0,,0,0
5/17/2026 0:00,0,0,0,1,0,,0,1
5/17/2026 1:00,0,0,0,1,1,,0,2
5/17/2026 2:00,0,0,0,0,0,,0,0
5/17/2026 3:00,0,0,0,0,0,,0,0
5/17/2026 4:00,0,0,0,0,0,,0,0
5/17/2026 5:00,0,0,0,0,0,,0,0
5/17/2026 6:00,0,0,0,0,0,,0,0
5/17/2026 7:00,0,2,1,0,0,,3,0
5/17/2026 8:00,0,0,0,0,0,,0,0
5/17/2026 9:00,0,2,0,0,0,,2,0
5/17/2026 10:00,0,0,1,0,2,,1,2
5/17/2026 11:00,0,1,4,1,0,,5,1
5/17/2026 12:00,0,1,1,2,7,,2,9
5/17/2026 13:00,0,7,2,1,0,,9,1
5/17/2026 14:00,0,5,2,0,4,,7,4
5/17/2026 15:00,1,3,1,5,0,,5,5
5/17/2026 16:00,0,2,1,1,7,,3,8
5/17/2026 17:00,0,1,0,6,1,,1,7
5/17/2026 18:00,0,0,0,2,5,,0,7
5/17/2026 19:00,0,1,0,1,0,,1,1
5/17/2026 20:00,0,0,0,0,0,,0,0
5/17/2026 21:00,0,0,0,0,0,,0,0
5/17/2026 22:00,0,0,0,0,0,,0,0
5/17/2026 23:00,0,0,0,1,0,,0,1
5/18/2026 0:00,0,0,0,0,0,,0,0
5/18/2026 1:00,0,0,0,0,0,,0,0
5/18/2026 2:00,0,0,0,0,0,,0,0
5/18/2026 3:00,0,0,0,0,0,,0,0
5/18/2026 4:00,0,0,0,0,0,,0,0
5/18/2026 5:00,0,0,0,0,0,,0,0
5/18/2026 6:00,0,0,0,0,1,,0,1
5/18/2026 7:00,0,1,0,1,0,,1,1
5/18/2026 8:00,0,0,1,0,0,,1,0
5/18/2026 9:00,0,0,0,0,0,,0,0
5/18/2026 10:00,0,3,0,0,0,,3,0
5/18/2026 11:00,0,0,1,0,0,,1,0
5/18/2026 12:00,0,0,0,0,0,,0,0
5/18/2026 13:00,0,0,0,1,0,,0,1
5/18/2026 14:00,1,2,0,0,0,,3,0
5/18/2026 15:00,0,2,1,4,2,,3,6
5/18/2026 16:00,0,0,0,1,0,,0,1
5/18/2026 17:00,0,1,1,0,1,,2,1
5/18/2026 18:00,0,0,2,1,2,,2,3
5/18/2026 19:00,0,0,0,1,0,,0,1
5/18/2026 20:00,0,0,0,0,0,,0,0
5/18/2026 21:00,0,0,0,0,0,,0,0
5/18/2026 22:00,0,0,0,1,0,,0,1
5/18/2026 23:00,0,0,0,0,0,,0,0
5/19/2026 0:00,0,0,0,0,0,,0,0
5/19/2026 1:00,0,0,0,0,0,,0,0
5/19/2026 2:00,0,0,0,0,0,,0,0
5/19/2026 3:00,0,0,0,0,0,,0,0
5/19/2026 4:00,0,0,0,1,0,,0,1
5/19/2026 5:00,0,0,0,0,0,,0,0
5/19/2026 6:00,0,0,0,0,1,,0,1
5/19/2026 7:00,0,2,0,1,0,,2,1
5/19/2026 8:00,0,1,0,0,0,,1,0
5/19/2026 9:00,0,1,0,0,0,,1,0
5/19/2026 10:00,0,0,0,0,0,,0,0
5/19/2026 11:00,0,0,0,0,0,,0,0
5/19/2026 12:00,0,1,0,1,0,,1,1
5/19/2026 13:00,0,2,1,3,0,,3,3
5/19/2026 14:00,0,0,0,1,0,,0,1
5/19/2026 15:00,1,0,1,0,0,,2,0
5/19/2026 16:00,0,0,1,0,0,,1,0
5/19/2026 17:00,0,0,0,2,1,,0,3
5/19/2026 18:00,0,0,0,3,0,,0,3
5/19/2026 19:00,0,0,0,0,0,,0,0
5/19/2026 20:00,0,0,0,0,0,,0,0
5/19/2026 21:00,0,0,0,0,0,,0,0
5/19/2026 22:00,0,0,0,0,0,,0,0
5/19/2026 23:00,0,0,0,0,0,,0,0
5/20/2026 0:00,0,0,0,0,0,,0,0
5/20/2026 1:00,0,0,0,0,0,,0,0
5/20/2026 2:00,0,0,0,0,0,,0,0
5/20/2026 3:00,0,0,0,0,0,,0,0
5/20/2026 4:00,0,0,0,0,0,,0,0
5/20/2026 5:00,0,0,0,0,1,,0,1
5/20/2026 6:00,0,0,0,0,0,,0,0
5/20/2026 7:00,0,0,0,0,0,,0,0
5/20/2026 8:00,0,0,0,0,0,,0,0
5/20/2026 9:00,0,0,0,0,0,,0,0
5/20/2026 10:00,0,2,1,1,1,,3,2
5/20/2026 11:00,0,0,0,3,0,,0,3
5/20/2026 12:00,0,0,0,0,0,,0,0
5/20/2026 13:00,0,1,3,0,1,,4,1
5/20/2026 14:00,0,0,1,0,0,,1,0
5/20/2026 15:00,0,0,0,2,0,,0,2
5/20/2026 16:00,0,1,0,0,0,,1,0
5/20/2026 17:00,0,0,1,1,0,,1,1
5/20/2026 18:00,0,0,0,1,2,,0,3
5/20/2026 19:00,0,0,0,0,0,,0,0
5/20/2026 20:00,0,0,0,1,0,,0,1
5/20/2026 21:00,0,0,0,0,0,,0,0
5/20/2026 22:00,0,0,0,0,0,,0,0
5/20/2026 23:00,0,0,0,0,0,,0,0
5/21/2026 0:00,0,0,0,0,0,,0,0
5/21/2026 1:00,0,0,0,0,0,,0,0
5/21/2026 2:00,0,0,0,0,0,,0,0
5/21/2026 3:00,0,0,0,0,0,,0,0
5/21/2026 4:00,0,0,0,0,0,,0,0
5/21/2026 5:00,0,0,0,0,0,,0,0
5/21/2026 6:00,0,0,0,0,1,,0,1
5/21/2026 7:00,0,0,0,0,0,,0,0
5/21/2026 8:00,0,0,0,0,1,,0,1
5/21/2026 9:00,0,0,0,0,0,,0,0
5/21/2026 10:00,0,0,0,0,0,,0,0
5/21/2026 11:00,0,0,0,0,0,,0,0
5/21/2026 12:00,0,0,0,0,0,,0,0
5/21/2026 13:00,0,1,0,0,0,,1,0
5/21/2026 14:00,0,0,0,0,0,,0,0
5/21/2026 15:00,0,0,0,0,0,,0,0
5/21/2026 16:00,0,0,0,0,0,,0,0
5/21/2026 17:00,0,0,1,0,1,,1,1
5/21/2026 18:00,0,0,0,0,0,,0,0
5/21/2026 19:00,0,0,0,1,0,,0,1
5/21/2026 20:00,0,1,1,0,0,,2,0
5/21/2026 21:00,0,0,0,1,0,,0,1
5/21/2026 22:00,0,0,0,0,0,,0,0
5/21/2026 23:00,0,0,0,0,0,,0,0
Lights,,,,,,,,
Entry,n/a,,,n/a,,,,
Direction,Eastbound,,,Westbound,,,,
Start Time,Lane 1,Lane 2,Lane 3,Lane 1,Lane 2,,,
5/15/2026 0:00,7,19,4,15,2,,30,38
5/15/2026 1:00,0,17,1,6,5,,18,24
5/15/2026 2:00,6,4,0,5,1,,10,9
5/15/2026 3:00,0,5,2,5,0,,7,12
5/15/2026 4:00,5,3,0,16,7,,8,19
5/15/2026 5:00,0,39,7,54,12,,46,100
5/15/2026 6:00,0,95,20,100,27,,115,215
5/15/2026 7:00,7,287,104,235,84,,398,626
5/15/2026 8:00,4,316,128,251,87,,448,695
5/15/2026 9:00,6,276,109,283,117,,391,668
5/15/2026 10:00,4,334,115,279,138,,453,728
5/15/2026 11:00,5,432,172,265,150,,609,869
5/15/2026 12:00,9,407,165,321,144,,581,893
5/15/2026 13:00,5,460,207,313,172,,672,980
5/15/2026 14:00,9,498,264,359,198,,771,1121
5/15/2026 15:00,41,490,205,324,193,,736,1019
5/15/2026 16:00,2,518,249,311,146,,769,1078
5/15/2026 17:00,10,501,269,277,96,,780,1047
5/15/2026 18:00,6,475,252,245,91,,733,972
5/15/2026 19:00,1,395,187,202,90,,583,784
5/15/2026 20:00,1,349,126,196,69,,476,671
5/15/2026 21:00,4,210,63,119,48,,277,392
5/15/2026 22:00,4,167,30,126,38,,201,323
5/15/2026 23:00,2,89,25,75,31,,116,189
5/16/2026 0:00,0,39,9,31,18,,48,79
5/16/2026 1:00,1,32,6,29,13,,39,67
5/16/2026 2:00,2,21,2,15,5,,25,38
5/16/2026 3:00,0,4,8,11,4,,12,23
5/16/2026 4:00,0,11,0,11,10,,11,22
5/16/2026 5:00,1,35,2,35,16,,38,72
5/16/2026 6:00,17,58,15,87,33,,90,160
5/16/2026 7:00,2,158,44,202,84,,204,404
5/16/2026 8:00,0,288,111,236,109,,399,635
5/16/2026 9:00,4,424,191,288,175,,619,903
5/16/2026 10:00,4,468,235,334,186,,707,1037
5/16/2026 11:00,4,520,294,348,212,,818,1162
5/16/2026 12:00,5,542,309,367,196,,856,1218
5/16/2026 13:00,4,505,316,373,194,,825,1194
5/16/2026 14:00,3,459,263,390,211,,725,1112
5/16/2026 15:00,9,463,251,385,200,,723,1099
5/16/2026 16:00,7,388,196,373,210,,591,957
5/16/2026 17:00,7,387,163,361,201,,557,911
5/16/2026 18:00,2,301,143,314,121,,446,758
5/16/2026 19:00,3,256,127,303,148,,386,686
5/16/2026 20:00,4,205,64,264,133,,273,533
5/16/2026 21:00,2,157,45,193,79,,204,395
5/16/2026 22:00,1,110,38,198,71,,149,346
5/16/2026 23:00,8,63,22,109,46,,93,194
5/17/2026 0:00,0,13,36,71,24,,49,120
5/17/2026 1:00,0,25,2,42,9,,27,69
5/17/2026 2:00,1,21,6,31,13,,28,58
5/17/2026 3:00,0,13,4,18,6,,17,35
5/17/2026 4:00,0,6,8,30,9,,14,44
5/17/2026 5:00,0,34,8,35,14,,42,77
5/17/2026 6:00,1,59,6,96,36,,66,161
5/17/2026 7:00,5,140,36,193,67,,181,369
5/17/2026 8:00,4,199,47,293,146,,250,539
5/17/2026 9:00,2,300,92,366,165,,394,758
5/17/2026 10:00,2,385,178,462,272,,565,1025
5/17/2026 11:00,2,435,179,517,280,,616,1131
5/17/2026 12:00,2,449,225,468,287,,676,1142
5/17/2026 13:00,6,359,138,505,278,,503,1002
5/17/2026 14:00,0,319,125,506,237,,444,950
5/17/2026 15:00,3,259,109,533,301,,371,901
5/17/2026 16:00,4,249,73,467,269,,326,789
5/17/2026 17:00,2,206,54,479,214,,262,739
5/17/2026 18:00,2,196,54,417,191,,252,667
5/17/2026 19:00,4,172,45,289,124,,221,506
5/17/2026 20:00,2,121,37,191,64,,160,349
5/17/2026 21:00,3,86,19,120,49,,108,225
5/17/2026 22:00,2,55,14,59,28,,71,128
5/17/2026 23:00,0,39,4,29,13,,43,72
5/18/2026 0:00,0,17,0,16,7,,17,33
5/18/2026 1:00,1,6,3,8,9,,10,17
5/18/2026 2:00,0,6,1,8,3,,7,15
5/18/2026 3:00,1,6,1,14,5,,8,21
5/18/2026 4:00,0,10,1,53,10,,11,64
5/18/2026 5:00,1,40,7,97,34,,48,144
5/18/2026 6:00,3,107,23,142,53,,133,272
5/18/2026 7:00,18,256,125,264,102,,399,645
5/18/2026 8:00,13,306,115,282,163,,434,703
5/18/2026 9:00,5,300,115,297,156,,420,712
5/18/2026 10:00,2,292,123,328,175,,417,743
5/18/2026 11:00,2,349,151,350,178,,502,850
5/18/2026 12:00,8,347,174,327,150,,529,848
5/18/2026 13:00,6,324,129,339,178,,459,792
5/18/2026 14:00,1,339,159,392,225,,499,890
5/18/2026 15:00,6,296,112,411,236,,414,819
5/18/2026 16:00,7,323,126,344,184,,456,793
5/18/2026 17:00,2,291,122,293,128,,415,706
5/18/2026 18:00,3,211,85,243,101,,299,539
5/18/2026 19:00,0,158,48,182,67,,206,388
5/18/2026 20:00,0,138,38,143,59,,176,319
5/18/2026 21:00,1,77,20,85,30,,98,182
5/18/2026 22:00,2,52,10,73,25,,64,135
5/18/2026 23:00,1,30,6,26,9,,37,62
5/19/2026 0:00,0,12,0,10,5,,12,22
5/19/2026 1:00,0,5,0,8,4,,5,13
5/19/2026 2:00,0,1,0,5,5,,1,6
5/19/2026 3:00,0,7,2,10,4,,9,19
5/19/2026 4:00,7,2,0,26,11,,9,28
5/19/2026 5:00,4,43,11,64,18,,58,118
5/19/2026 6:00,0,111,20,134,26,,131,265
5/19/2026 7:00,1,288,125,251,100,,414,664
5/19/2026 8:00,1,298,122,272,118,,421,692
5/19/2026 9:00,4,281,118,278,97,,403,677
5/19/2026 10:00,2,318,158,268,144,,478,744
5/19/2026 11:00,9,344,154,288,132,,507,786
5/19/2026 12:00,10,359,156,353,174,,525,868
5/19/2026 13:00,4,339,145,298,150,,488,782
5/19/2026 14:00,1,332,133,412,221,,466,877
5/19/2026 15:00,7,323,110,406,219,,440,839
5/19/2026 16:00,3,320,102,329,164,,425,751
5/19/2026 17:00,10,298,110,324,155,,418,732
5/19/2026 18:00,0,232,88,243,74,,320,563
5/19/2026 19:00,2,162,55,179,48,,219,396
5/19/2026 20:00,0,142,41,153,67,,183,336
5/19/2026 21:00,2,102,22,99,35,,126,223
5/19/2026 22:00,0,45,11,45,20,,56,101
5/19/2026 23:00,4,27,4,21,12,,35,52
5/20/2026 0:00,0,16,1,11,6,,17,28
5/20/2026 1:00,0,13,0,9,1,,13,22
5/20/2026 2:00,0,2,2,2,2,,4,6
5/20/2026 3:00,0,6,1,10,1,,7,17
5/20/2026 4:00,0,6,0,26,10,,6,32
5/20/2026 5:00,4,42,11,54,21,,57,107
5/20/2026 6:00,1,103,20,141,31,,124,264
5/20/2026 7:00,2,280,95,246,124,,377,621
5/20/2026 8:00,3,306,112,279,133,,421,697
5/20/2026 9:00,13,276,93,260,99,,382,629
5/20/2026 10:00,9,350,127,273,127,,486,750
5/20/2026 11:00,3,334,163,278,144,,500,775
5/20/2026 12:00,4,348,158,288,131,,510,794
5/20/2026 13:00,4,356,155,303,133,,515,814
5/20/2026 14:00,1,391,150,335,182,,542,876
5/20/2026 15:00,5,303,117,355,162,,425,775
5/20/2026 16:00,7,304,142,329,184,,453,775
5/20/2026 17:00,3,340,106,295,129,,449,741
5/20/2026 18:00,0,289,103,230,96,,392,622
5/20/2026 19:00,1,257,79,177,90,,337,513
5/20/2026 20:00,2,223,50,126,50,,275,399
5/20/2026 21:00,5,135,43,111,41,,183,289
5/20/2026 22:00,0,107,21,53,29,,128,181
5/20/2026 23:00,0,47,14,30,11,,61,91
5/21/2026 0:00,3,32,2,4,13,,37,38
5/21/2026 1:00,3,11,1,9,8,,15,21
5/21/2026 2:00,12,2,0,12,6,,14,14
5/21/2026 3:00,3,3,0,14,2,,6,17
5/21/2026 4:00,4,4,0,24,8,,8,28
5/21/2026 5:00,2,41,11,45,17,,54,97
5/21/2026 6:00,2,94,23,116,26,,119,233
5/21/2026 7:00,0,291,111,248,100,,402,650
5/21/2026 8:00,6,308,124,269,115,,438,701
5/21/2026 9:00,4,319,131,278,113,,454,728
5/21/2026 10:00,7,324,162,301,165,,493,787
5/21/2026 11:00,1,380,148,302,159,,529,830
5/21/2026 12:00,5,430,190,348,139,,625,968
5/21/2026 13:00,4,471,227,334,154,,702,1032
5/21/2026 14:00,0,2,0,2,1,,2,4
5/21/2026 15:00,0,0,0,0,0,,0,0
5/21/2026 16:00,0,0,0,0,0,,0,0
5/21/2026 17:00,5,455,265,255,130,,725,975
5/21/2026 18:00,3,590,138,213,99,,731,941
5/21/2026 19:00,1,451,197,183,57,,649,831
5/21/2026 20:00,0,462,221,145,48,,683,828
5/21/2026 21:00,1,319,379,110,44,,699,808
5/21/2026 22:00,0,356,149,86,34,,505,591
5/21/2026 23:00,2,212,79,58,21,,293,349
Single-Unit Trucks,,,,,,,,
Entry,n/a,,,n/a,,,,
Direction,Eastbound,,,Westbound,,,,
Start Time,Lane 1,Lane 2,Lane 3,Lane 1,Lane 2,,,
5/15/2026 0:00,0,0,0,0,0,,0,0
5/15/2026 1:00,0,0,0,0,1,,0,0
5/15/2026 2:00,0,0,0,1,0,,0,1
5/15/2026 3:00,0,0,0,0,0,,0,0
5/15/2026 4:00,0,0,0,0,0,,0,0
5/15/2026 5:00,0,0,0,0,0,,0,0
5/15/2026 6:00,0,4,0,1,0,,4,5
5/15/2026 7:00,0,16,2,4,2,,18,22
5/15/2026 8:00,0,27,8,6,3,,35,41
5/15/2026 9:00,0,34,1,15,4,,35,50
5/15/2026 10:00,0,16,3,24,9,,19,43
5/15/2026 11:00,0,10,3,14,3,,13,27
5/15/2026 12:00,1,17,0,10,3,,18,27
5/15/2026 13:00,0,6,1,19,5,,7,26
5/15/2026 14:00,0,6,1,17,5,,7,24
5/15/2026 15:00,0,1,1,11,4,,2,13
5/15/2026 16:00,0,2,0,8,7,,2,10
5/15/2026 17:00,0,1,0,9,0,,1,10
5/15/2026 18:00,0,0,0,1,0,,0,1
5/15/2026 19:00,0,2,1,0,0,,3,3
5/15/2026 20:00,0,0,0,4,0,,0,4
5/15/2026 21:00,0,1,0,0,1,,1,1
5/15/2026 22:00,0,0,0,1,2,,0,1
5/15/2026 23:00,0,1,0,0,1,,1,1
5/16/2026 0:00,0,0,0,1,0,,0,1
5/16/2026 1:00,0,0,0,0,0,,0,0
5/16/2026 2:00,0,0,0,1,0,,0,1
5/16/2026 3:00,0,0,0,0,0,,0,0
5/16/2026 4:00,0,1,1,0,0,,2,2
5/16/2026 5:00,0,0,2,1,1,,2,3
5/16/2026 6:00,0,7,0,0,2,,7,7
5/16/2026 7:00,0,6,1,4,1,,7,11
5/16/2026 8:00,0,5,0,0,2,,5,5
5/16/2026 9:00,0,4,3,2,0,,7,9
5/16/2026 10:00,1,5,3,3,4,,9,11
5/16/2026 11:00,0,4,1,2,0,,5,7
5/16/2026 12:00,0,4,1,3,3,,5,8
5/16/2026 13:00,0,1,0,4,1,,1,5
5/16/2026 14:00,0,3,1,4,0,,4,8
5/16/2026 15:00,0,1,0,4,0,,1,5
5/16/2026 16:00,0,0,0,2,0,,0,2
5/16/2026 17:00,0,1,0,2,0,,1,3
5/16/2026 18:00,0,3,0,2,0,,3,5
5/16/2026 19:00,0,0,0,1,0,,0,1
5/16/2026 20:00,0,1,0,1,2,,1,2
5/16/2026 21:00,0,3,0,0,0,,3,3
5/16/2026 22:00,0,0,0,0,0,,0,0
5/16/2026 23:00,0,1,0,0,0,,1,1
5/17/2026 0:00,0,1,0,1,1,,1,2
5/17/2026 1:00,0,0,0,0,2,,0,0
5/17/2026 2:00,0,0,0,0,1,,0,0
5/17/2026 3:00,0,1,0,0,0,,1,1
5/17/2026 4:00,0,1,0,1,0,,1,2
5/17/2026 5:00,0,0,0,0,0,,0,0
5/17/2026 6:00,0,0,0,0,0,,0,0
5/17/2026 7:00,0,1,0,0,1,,1,1
5/17/2026 8:00,0,1,0,0,0,,1,1
5/17/2026 9:00,0,2,1,0,1,,3,3
5/17/2026 10:00,0,0,2,3,0,,2,5
5/17/2026 11:00,0,3,0,1,2,,3,4
5/17/2026 12:00,0,1,0,2,0,,1,3
5/17/2026 13:00,0,1,2,2,0,,3,5
5/17/2026 14:00,0,3,1,0,0,,4,4
5/17/2026 15:00,0,0,0,2,0,,0,2
5/17/2026 16:00,0,0,0,1,0,,0,1
5/17/2026 17:00,0,0,0,2,1,,0,2
5/17/2026 18:00,0,0,0,0,1,,0,0
5/17/2026 19:00,0,0,1,3,0,,1,4
5/17/2026 20:00,0,0,0,0,0,,0,0
5/17/2026 21:00,0,0,0,0,0,,0,0
5/17/2026 22:00,0,0,0,0,0,,0,0
5/17/2026 23:00,0,0,1,1,0,,1,2
5/18/2026 0:00,0,0,0,0,0,,0,0
5/18/2026 1:00,0,0,0,0,1,,0,0
5/18/2026 2:00,0,1,0,1,0,,1,2
5/18/2026 3:00,0,0,0,0,0,,0,0
5/18/2026 4:00,0,1,1,0,0,,2,2
5/18/2026 5:00,0,1,0,1,0,,1,2
5/18/2026 6:00,0,4,0,1,1,,4,5
5/18/2026 7:00,0,19,3,6,3,,22,28
5/18/2026 8:00,0,18,3,6,0,,21,27
5/18/2026 9:00,0,18,6,11,2,,24,35
5/18/2026 10:00,1,19,6,17,6,,26,42
5/18/2026 11:00,0,12,2,12,3,,14,26
5/18/2026 12:00,0,15,1,16,1,,16,32
5/18/2026 13:00,0,17,3,14,4,,20,34
5/18/2026 14:00,0,12,4,20,3,,16,36
5/18/2026 15:00,1,3,2,24,1,,6,29
5/18/2026 16:00,0,6,1,8,7,,7,15
5/18/2026 17:00,2,7,1,3,1,,10,11
5/18/2026 18:00,0,2,0,4,2,,2,6
5/18/2026 19:00,0,0,0,1,0,,0,1
5/18/2026 20:00,0,0,0,0,0,,0,0
5/18/2026 21:00,0,0,0,0,0,,0,0
5/18/2026 22:00,0,0,0,0,0,,0,0
5/18/2026 23:00,0,0,0,0,0,,0,0
5/19/2026 0:00,0,0,0,0,0,,0,0
5/19/2026 1:00,0,0,0,0,0,,0,0
5/19/2026 2:00,0,0,0,0,0,,0,0
5/19/2026 3:00,0,0,0,0,0,,0,0
5/19/2026 4:00,0,1,0,0,0,,1,1
5/19/2026 5:00,0,1,0,1,1,,1,2
5/19/2026 6:00,0,7,0,1,0,,7,8
5/19/2026 7:00,0,16,4,8,1,,20,28
5/19/2026 8:00,0,23,8,7,0,,31,38
5/19/2026 9:00,0,32,4,6,3,,36,42
5/19/2026 10:00,0,20,4,25,3,,24,49
5/19/2026 11:00,0,18,1,10,5,,19,29
5/19/2026 12:00,0,9,1,15,4,,10,25
5/19/2026 13:00,0,19,3,14,5,,22,36
5/19/2026 14:00,0,11,2,23,8,,13,36
5/19/2026 15:00,0,6,1,19,7,,7,26
5/19/2026 16:00,0,9,0,7,3,,9,16
5/19/2026 17:00,1,3,0,7,2,,4,10
5/19/2026 18:00,0,3,0,2,1,,3,5
5/19/2026 19:00,0,2,0,4,1,,2,6
5/19/2026 20:00,0,2,0,1,0,,2,3
5/19/2026 21:00,0,1,0,0,0,,1,1
5/19/2026 22:00,0,0,0,0,0,,0,0
5/19/2026 23:00,0,0,0,0,2,,0,0
5/20/2026 0:00,0,0,0,0,1,,0,0
5/20/2026 1:00,0,0,0,0,0,,0,0
5/20/2026 2:00,0,0,0,0,0,,0,0
5/20/2026 3:00,0,0,0,0,0,,0,0
5/20/2026 4:00,1,1,0,0,0,,2,1
5/20/2026 5:00,0,0,0,0,0,,0,0
5/20/2026 6:00,0,8,1,5,0,,9,14
5/20/2026 7:00,0,19,4,6,3,,23,29
5/20/2026 8:00,0,29,5,9,2,,34,43
5/20/2026 9:00,2,21,4,4,5,,27,29
5/20/2026 10:00,0,15,0,20,6,,15,35
5/20/2026 11:00,0,28,6,15,7,,34,49
5/20/2026 12:00,0,12,6,21,6,,18,39
5/20/2026 13:00,0,14,2,18,3,,16,34
5/20/2026 14:00,0,5,0,9,6,,5,14
5/20/2026 15:00,0,6,0,19,0,,6,25
5/20/2026 16:00,0,3,2,6,1,,5,11
5/20/2026 17:00,0,4,0,8,2,,4,12
5/20/2026 18:00,0,3,1,5,2,,4,9
5/20/2026 19:00,0,1,0,6,2,,1,7
5/20/2026 20:00,0,0,0,2,0,,0,2
5/20/2026 21:00,0,0,0,1,0,,0,1
5/20/2026 22:00,0,0,0,0,0,,0,0
5/20/2026 23:00,0,0,0,0,0,,0,0
5/21/2026 0:00,0,0,0,0,0,,0,0
5/21/2026 1:00,0,0,0,0,0,,0,0
5/21/2026 2:00,0,0,0,2,0,,0,2
5/21/2026 3:00,0,0,0,0,0,,0,0
5/21/2026 4:00,1,0,0,0,0,,1,0
5/21/2026 5:00,0,2,1,0,0,,3,3
5/21/2026 6:00,0,3,0,0,0,,3,3
5/21/2026 7:00,0,15,2,9,1,,17,26
5/21/2026 8:00,0,29,3,11,0,,32,43
5/21/2026 9:00,0,22,6,14,2,,28,42
5/21/2026 10:00,0,30,5,11,5,,35,46
5/21/2026 11:00,0,11,3,21,5,,14,35
5/21/2026 12:00,0,21,3,10,4,,24,34
5/21/2026 13:00,0,13,5,21,4,,18,39
5/21/2026 14:00,0,0,0,0,0,,0,0
5/21/2026 15:00,0,0,0,0,0,,0,0
5/21/2026 16:00,0,0,0,0,0,,0,0
5/21/2026 17:00,0,4,1,3,0,,5,8
5/21/2026 18:00,0,3,0,9,0,,3,12
5/21/2026 19:00,0,0,0,0,0,,0,0
5/21/2026 20:00,0,2,0,0,0,,2,2
5/21/2026 21:00,0,0,3,0,0,,3,3
5/21/2026 22:00,0,1,0,0,1,,1,1
5/21/2026 23:00,0,0,0,1,0,,0,1
Articulated Trucks,,,,,,,,
Entry,n/a,,,n/a,,,,
Direction,Eastbound,,,Westbound,,,,
Start Time,Lane 1,Lane 2,Lane 3,Lane 1,Lane 2,,,
5/15/2026 0:00,0,0,0,0,0,,0,0
5/15/2026 1:00,0,0,0,0,0,,0,0
5/15/2026 2:00,0,0,0,0,0,,0,0
5/15/2026 3:00,0,0,0,0,0,,0,0
5/15/2026 4:00,0,0,0,0,0,,0,0
5/15/2026 5:00,0,0,0,0,0,,0,0
5/15/2026 6:00,0,2,0,0,0,,2,2
5/15/2026 7:00,0,4,0,1,0,,4,5
5/15/2026 8:00,0,7,1,0,0,,8,8
5/15/2026 9:00,0,3,0,1,0,,3,4
5/15/2026 10:00,0,1,0,5,2,,1,6
5/15/2026 11:00,0,1,0,1,0,,1,2
5/15/2026 12:00,0,1,0,0,2,,1,1
5/15/2026 13:00,0,0,0,1,0,,0,1
5/15/2026 14:00,0,3,0,0,0,,3,3
5/15/2026 15:00,0,0,0,1,1,,0,1
5/15/2026 16:00,0,0,0,3,0,,0,3
5/15/2026 17:00,0,0,0,2,0,,0,2
5/15/2026 18:00,0,0,0,0,0,,0,0
5/15/2026 19:00,0,0,0,0,0,,0,0
5/15/2026 20:00,0,0,0,0,0,,0,0
5/15/2026 21:00,0,1,0,0,0,,1,1
5/15/2026 22:00,0,0,0,1,0,,0,1
5/15/2026 23:00,0,1,0,0,0,,1,1
5/16/2026 0:00,0,1,0,0,0,,1,1
5/16/2026 1:00,0,0,0,0,1,,0,0
5/16/2026 2:00,0,0,0,0,0,,0,0
5/16/2026 3:00,0,0,0,0,0,,0,0
5/16/2026 4:00,0,0,0,0,0,,0,0
5/16/2026 5:00,0,0,0,0,0,,0,0
5/16/2026 6:00,0,1,0,0,0,,1,1
5/16/2026 7:00,0,0,0,1,0,,0,1
5/16/2026 8:00,0,0,0,2,0,,0,2
5/16/2026 9:00,0,0,0,0,0,,0,0
5/16/2026 10:00,0,0,0,0,0,,0,0
5/16/2026 11:00,0,0,0,0,0,,0,0
5/16/2026 12:00,0,2,0,0,0,,2,2
5/16/2026 13:00,0,0,0,0,0,,0,0
5/16/2026 14:00,0,1,0,0,0,,1,1
5/16/2026 15:00,0,0,0,0,0,,0,0
5/16/2026 16:00,0,1,0,0,0,,1,1
5/16/2026 17:00,0,0,0,1,0,,0,1
5/16/2026 18:00,0,0,0,0,0,,0,0
5/16/2026 19:00,0,0,0,0,0,,0,0
5/16/2026 20:00,0,0,0,1,0,,0,1
5/16/2026 21:00,0,0,0,1,0,,0,1
5/16/2026 22:00,0,1,0,0,0,,1,1
5/16/2026 23:00,0,0,0,0,0,,0,0
5/17/2026 0:00,0,0,0,0,0,,0,0
5/17/2026 1:00,0,0,0,0,0,,0,0
5/17/2026 2:00,0,0,0,0,0,,0,0
5/17/2026 3:00,0,0,1,0,0,,1,1
5/17/2026 4:00,0,0,0,0,0,,0,0
5/17/2026 5:00,0,0,0,0,0,,0,0
5/17/2026 6:00,0,0,0,0,0,,0,0
5/17/2026 7:00,0,0,0,0,0,,0,0
5/17/2026 8:00,0,0,0,0,0,,0,0
5/17/2026 9:00,0,1,0,0,0,,1,1
5/17/2026 10:00,0,0,0,0,0,,0,0
5/17/2026 11:00,0,0,0,0,0,,0,0
5/17/2026 12:00,0,0,0,0,0,,0,0
5/17/2026 13:00,0,0,0,1,0,,0,1
5/17/2026 14:00,0,0,0,0,0,,0,0
5/17/2026 15:00,0,0,0,0,0,,0,0
5/17/2026 16:00,0,0,0,0,0,,0,0
5/17/2026 17:00,0,0,0,0,0,,0,0
5/17/2026 18:00,0,0,0,0,0,,0,0
5/17/2026 19:00,0,0,0,0,0,,0,0
5/17/2026 20:00,0,1,0,1,0,,1,2
5/17/2026 21:00,0,1,0,0,0,,1,1
5/17/2026 22:00,0,0,0,2,0,,0,2
5/17/2026 23:00,0,1,0,0,0,,1,1
5/18/2026 0:00,0,1,0,0,0,,1,1
5/18/2026 1:00,0,0,0,1,0,,0,1
5/18/2026 2:00,0,0,0,0,0,,0,0
5/18/2026 3:00,0,0,0,0,0,,0,0
5/18/2026 4:00,0,0,0,0,0,,0,0
5/18/2026 5:00,0,0,0,0,0,,0,0
5/18/2026 6:00,0,2,0,0,0,,2,2
5/18/2026 7:00,0,4,0,1,0,,4,5
5/18/2026 8:00,0,6,0,0,0,,6,6
5/18/2026 9:00,0,1,0,0,1,,1,1
5/18/2026 10:00,0,2,0,1,1,,2,3
5/18/2026 11:00,0,2,0,2,1,,2,4
5/18/2026 12:00,0,1,0,2,0,,1,3
5/18/2026 13:00,0,2,0,3,0,,2,5
5/18/2026 14:00,0,2,0,2,0,,2,4
5/18/2026 15:00,0,5,1,0,1,,6,6
5/18/2026 16:00,0,0,0,2,0,,0,2
5/18/2026 17:00,0,0,0,7,0,,0,7
5/18/2026 18:00,0,0,0,0,1,,0,0
5/18/2026 19:00,0,0,0,0,0,,0,0
5/18/2026 20:00,0,0,0,0,0,,0,0
5/18/2026 21:00,0,2,0,0,0,,2,2
5/18/2026 22:00,0,0,0,0,0,,0,0
5/18/2026 23:00,0,0,0,0,0,,0,0
5/19/2026 0:00,0,0,0,0,0,,0,0
5/19/2026 1:00,0,0,0,0,0,,0,0
5/19/2026 2:00,0,1,0,1,0,,1,2
5/19/2026 3:00,0,0,0,2,0,,0,2
5/19/2026 4:00,2,0,0,0,0,,2,0
5/19/2026 5:00,0,1,0,0,0,,1,1
5/19/2026 6:00,0,5,0,0,0,,5,5
5/19/2026 7:00,0,5,0,0,0,,5,5
5/19/2026 8:00,0,5,0,0,0,,5,5
5/19/2026 9:00,0,1,1,1,0,,2,3
5/19/2026 10:00,0,1,0,4,0,,1,5
5/19/2026 11:00,0,2,0,3,1,,2,5
5/19/2026 12:00,0,5,0,9,0,,5,14
5/19/2026 13:00,0,1,0,0,0,,1,1
5/19/2026 14:00,0,2,0,2,0,,2,4
5/19/2026 15:00,0,0,0,2,0,,0,2
5/19/2026 16:00,0,2,0,1,0,,2,3
5/19/2026 17:00,0,0,0,1,0,,0,1
5/19/2026 18:00,0,0,0,1,0,,0,1
5/19/2026 19:00,0,0,0,1,0,,0,1
5/19/2026 20:00,0,0,0,0,0,,0,0
5/19/2026 21:00,0,0,0,0,1,,0,0
5/19/2026 22:00,0,0,0,1,0,,0,1
5/19/2026 23:00,0,0,0,0,0,,0,0
5/20/2026 0:00,0,0,0,0,0,,0,0
5/20/2026 1:00,0,0,0,0,0,,0,0
5/20/2026 2:00,0,0,0,0,0,,0,0
5/20/2026 3:00,0,0,0,0,0,,0,0
5/20/2026 4:00,0,0,0,0,0,,0,0
5/20/2026 5:00,0,2,0,0,0,,2,2
5/20/2026 6:00,0,2,0,0,0,,2,2
5/20/2026 7:00,0,6,0,0,0,,6,6
5/20/2026 8:00,0,4,0,2,0,,4,6
5/20/2026 9:00,0,4,2,1,1,,6,7
5/20/2026 10:00,0,4,2,3,0,,6,9
5/20/2026 11:00,0,2,0,2,0,,2,4
5/20/2026 12:00,0,6,0,0,0,,6,6
5/20/2026 13:00,0,1,0,5,0,,1,6
5/20/2026 14:00,0,1,1,1,0,,2,3
5/20/2026 15:00,0,0,0,2,1,,0,2
5/20/2026 16:00,0,1,0,3,2,,1,4
5/20/2026 17:00,0,0,0,2,0,,0,2
5/20/2026 18:00,0,0,0,1,1,,0,1
5/20/2026 19:00,0,0,0,0,0,,0,0
5/20/2026 20:00,0,0,0,0,0,,0,0
5/20/2026 21:00,0,2,0,2,0,,2,4
5/20/2026 22:00,0,0,0,1,0,,0,1
5/20/2026 23:00,0,0,0,0,0,,0,0
5/21/2026 0:00,0,0,0,0,0,,0,0
5/21/2026 1:00,0,0,0,0,0,,0,0
5/21/2026 2:00,0,0,0,0,0,,0,0
5/21/2026 3:00,0,0,0,0,0,,0,0
5/21/2026 4:00,0,0,0,0,0,,0,0
5/21/2026 5:00,0,1,0,0,0,,1,1
5/21/2026 6:00,0,1,0,1,0,,1,2
5/21/2026 7:00,0,6,0,0,0,,6,6
5/21/2026 8:00,0,7,0,1,0,,7,8
5/21/2026 9:00,0,2,1,0,0,,3,3
5/21/2026 10:00,0,2,1,3,0,,3,6
5/21/2026 11:00,0,3,0,2,0,,3,5
5/21/2026 12:00,0,2,0,3,0,,2,5
5/21/2026 13:00,0,1,0,1,1,,1,2
5/21/2026 14:00,0,0,0,0,0,,0,0
5/21/2026 15:00,0,0,0,0,0,,0,0
5/21/2026 16:00,0,0,0,0,0,,0,0
5/21/2026 17:00,0,0,0,3,0,,0,3
5/21/2026 18:00,0,0,0,1,0,,0,1
5/21/2026 19:00,0,0,0,0,0,,0,0
5/21/2026 20:00,0,1,0,2,0,,1,3
5/21/2026 21:00,0,0,0,0,0,,0,0
5/21/2026 22:00,0,1,0,1,0,,1,2
5/21/2026 23:00,0,0,0,0,0,,0,0
Buses,,,,,,,,
Entry,n/a,,,n/a,,,,
Direction,Eastbound,,,Westbound,,,,
Start Time,Lane 1,Lane 2,Lane 3,Lane 1,Lane 2,,,
5/15/2026 0:00,0,0,0,0,0,,0,0
5/15/2026 1:00,0,0,0,0,0,,0,0
5/15/2026 2:00,0,0,0,0,0,,0,0
5/15/2026 3:00,0,0,0,0,0,,0,0
5/15/2026 4:00,0,0,0,0,0,,0,0
5/15/2026 5:00,0,0,0,0,0,,0,0
5/15/2026 6:00,0,0,0,1,0,,0,1
5/15/2026 7:00,0,2,0,6,0,,2,8
5/15/2026 8:00,0,4,1,6,0,,5,11
5/15/2026 9:00,0,1,1,2,1,,2,4
5/15/2026 10:00,0,2,0,1,1,,2,3
5/15/2026 11:00,0,1,0,2,1,,1,3
5/15/2026 12:00,0,1,0,1,1,,1,2
5/15/2026 13:00,0,2,2,4,1,,4,8
5/15/2026 14:00,0,6,1,5,1,,7,12
5/15/2026 15:00,0,2,0,2,1,,2,4
5/15/2026 16:00,0,2,0,1,0,,2,3
5/15/2026 17:00,0,2,1,1,1,,3,4
5/15/2026 18:00,0,1,0,1,0,,1,2
5/15/2026 19:00,0,0,0,0,0,,0,0
5/15/2026 20:00,0,1,0,0,0,,1,1
5/15/2026 21:00,0,1,0,0,0,,1,1
5/15/2026 22:00,0,0,0,0,0,,0,0
5/15/2026 23:00,0,0,0,0,0,,0,0
5/16/2026 0:00,0,0,0,0,0,,0,0
5/16/2026 1:00,0,0,0,0,0,,0,0
5/16/2026 2:00,0,0,0,0,0,,0,0
5/16/2026 3:00,0,0,0,0,0,,0,0
5/16/2026 4:00,0,0,0,0,0,,0,0
5/16/2026 5:00,0,0,0,0,0,,0,0
5/16/2026 6:00,0,0,0,0,0,,0,0
5/16/2026 7:00,0,0,0,2,0,,0,2
5/16/2026 8:00,0,0,0,0,0,,0,0
5/16/2026 9:00,0,1,0,0,0,,1,1
5/16/2026 10:00,0,0,0,1,1,,0,1
5/16/2026 11:00,0,0,0,0,0,,0,0
5/16/2026 12:00,0,1,0,1,0,,1,2
5/16/2026 13:00,0,1,0,1,0,,1,2
5/16/2026 14:00,0,0,0,1,0,,0,1
5/16/2026 15:00,0,0,0,1,1,,0,1
5/16/2026 16:00,0,1,0,2,0,,1,3
5/16/2026 17:00,0,2,0,1,0,,2,3
5/16/2026 18:00,0,0,0,1,0,,0,1
5/16/2026 19:00,0,1,0,0,0,,1,1
5/16/2026 20:00,0,0,1,0,0,,1,1
5/16/2026 21:00,0,1,0,0,0,,1,1
5/16/2026 22:00,0,0,0,1,0,,0,1
5/16/2026 23:00,0,0,0,0,0,,0,0
5/17/2026 0:00,0,0,0,0,0,,0,0
5/17/2026 1:00,0,0,0,0,0,,0,0
5/17/2026 2:00,0,0,0,0,0,,0,0
5/17/2026 3:00,0,0,0,0,0,,0,0
5/17/2026 4:00,0,0,0,0,0,,0,0
5/17/2026 5:00,0,0,0,0,0,,0,0
5/17/2026 6:00,0,0,0,0,0,,0,0
5/17/2026 7:00,0,1,0,2,0,,1,3
5/17/2026 8:00,0,0,0,1,0,,0,1
5/17/2026 9:00,0,1,0,1,0,,1,2
5/17/2026 10:00,0,2,0,0,1,,2,2
5/17/2026 11:00,0,0,0,0,0,,0,0
5/17/2026 12:00,0,1,0,0,0,,1,1
5/17/2026 13:00,0,0,1,1,0,,1,2
5/17/2026 14:00,0,0,0,2,0,,0,2
5/17/2026 15:00,0,1,0,0,2,,1,1
5/17/2026 16:00,0,1,0,0,0,,1,1
5/17/2026 17:00,0,1,0,1,0,,1,2
5/17/2026 18:00,0,0,0,0,0,,0,0
5/17/2026 19:00,0,0,0,0,0,,0,0
5/17/2026 20:00,0,1,0,1,0,,1,2
5/17/2026 21:00,0,0,0,0,0,,0,0
5/17/2026 22:00,0,0,0,1,0,,0,1
5/17/2026 23:00,0,0,0,0,0,,0,0
5/18/2026 0:00,0,0,0,0,0,,0,0
5/18/2026 1:00,0,0,0,0,0,,0,0
5/18/2026 2:00,0,0,0,0,0,,0,0
5/18/2026 3:00,0,0,0,0,0,,0,0
5/18/2026 4:00,0,0,0,0,0,,0,0
5/18/2026 5:00,0,0,0,0,0,,0,0
5/18/2026 6:00,0,0,0,1,0,,0,1
5/18/2026 7:00,0,3,0,5,1,,3,8
5/18/2026 8:00,0,1,1,5,0,,2,7
5/18/2026 9:00,0,2,0,0,1,,2,2
5/18/2026 10:00,0,1,1,1,1,,2,3
5/18/2026 11:00,0,0,0,0,0,,0,0
5/18/2026 12:00,0,2,0,1,0,,2,3
5/18/2026 13:00,0,4,0,0,0,,4,4
5/18/2026 14:00,0,3,0,5,2,,3,8
5/18/2026 15:00,0,2,1,2,1,,3,5
5/18/2026 16:00,0,2,1,1,1,,3,4
5/18/2026 17:00,0,1,0,0,0,,1,1
5/18/2026 18:00,0,0,1,2,0,,1,3
5/18/2026 19:00,0,0,0,1,0,,0,1
5/18/2026 20:00,0,1,0,0,0,,1,1
5/18/2026 21:00,0,1,0,0,0,,1,1
5/18/2026 22:00,0,0,0,1,0,,0,1
5/18/2026 23:00,0,1,0,0,0,,1,1
5/19/2026 0:00,0,0,0,0,0,,0,0
5/19/2026 1:00,0,0,0,0,0,,0,0
5/19/2026 2:00,0,0,0,0,0,,0,0
5/19/2026 3:00,0,0,0,0,0,,0,0
5/19/2026 4:00,0,0,0,0,0,,0,0
5/19/2026 5:00,0,0,0,0,0,,0,0
5/19/2026 6:00,0,0,0,1,0,,0,1
5/19/2026 7:00,0,4,0,8,0,,4,12
5/19/2026 8:00,0,4,1,5,0,,5,10
5/19/2026 9:00,0,1,1,1,1,,2,3
5/19/2026 10:00,0,1,0,2,0,,1,3
5/19/2026 11:00,0,0,0,1,0,,0,1
5/19/2026 12:00,0,2,0,2,1,,2,4
5/19/2026 13:00,0,1,1,4,1,,2,6
5/19/2026 14:00,0,4,1,2,0,,5,7
5/19/2026 15:00,0,1,2,1,2,,3,4
5/19/2026 16:00,0,2,0,1,1,,2,3
5/19/2026 17:00,0,1,0,1,0,,1,2
5/19/2026 18:00,0,0,0,1,0,,0,1
5/19/2026 19:00,0,0,0,1,0,,0,1
5/19/2026 20:00,0,1,0,0,0,,1,1
5/19/2026 21:00,0,1,0,0,0,,1,1
5/19/2026 22:00,0,0,0,0,0,,0,0
5/19/2026 23:00,0,0,0,0,0,,0,0
5/20/2026 0:00,0,0,0,0,0,,0,0
5/20/2026 1:00,0,0,0,0,0,,0,0
5/20/2026 2:00,0,0,0,0,0,,0,0
5/20/2026 3:00,0,0,0,0,0,,0,0
5/20/2026 4:00,0,0,0,0,0,,0,0
5/20/2026 5:00,0,0,0,0,0,,0,0
5/20/2026 6:00,0,0,0,1,0,,0,1
5/20/2026 7:00,0,3,0,6,0,,3,9
5/20/2026 8:00,0,2,1,7,1,,3,10
5/20/2026 9:00,0,0,1,0,0,,1,1
5/20/2026 10:00,0,1,1,2,1,,2,4
5/20/2026 11:00,0,1,1,0,1,,2,2
5/20/2026 12:00,0,5,0,1,0,,5,6
5/20/2026 13:00,0,2,0,3,1,,2,5
5/20/2026 14:00,0,5,0,5,0,,5,10
5/20/2026 15:00,0,2,1,2,1,,3,5
5/20/2026 16:00,0,2,0,2,0,,2,4
5/20/2026 17:00,0,1,0,0,1,,1,1
5/20/2026 18:00,0,0,0,0,0,,0,0
5/20/2026 19:00,0,0,0,1,0,,0,1
5/20/2026 20:00,0,1,1,0,0,,2,2
5/20/2026 21:00,0,0,0,0,0,,0,0
5/20/2026 22:00,0,0,0,0,0,,0,0
5/20/2026 23:00,0,1,0,1,0,,1,2
5/21/2026 0:00,0,0,0,0,0,,0,0
5/21/2026 1:00,0,0,0,0,0,,0,0
5/21/2026 2:00,0,0,0,0,0,,0,0
5/21/2026 3:00,0,0,0,0,0,,0,0
5/21/2026 4:00,0,0,0,0,0,,0,0
5/21/2026 5:00,0,0,0,0,0,,0,0
5/21/2026 6:00,0,0,0,1,0,,0,1
5/21/2026 7:00,0,3,0,6,1,,3,9
5/21/2026 8:00,0,2,1,5,1,,3,8
5/21/2026 9:00,0,4,1,1,1,,5,6
5/21/2026 10:00,0,1,0,3,2,,1,4
5/21/2026 11:00,0,1,0,3,0,,1,4
5/21/2026 12:00,0,2,1,1,0,,3,4
5/21/2026 13:00,0,1,0,5,0,,1,6
5/21/2026 14:00,0,0,0,0,0,,0,0
5/21/2026 15:00,0,0,0,0,0,,0,0
5/21/2026 16:00,0,0,0,0,0,,0,0
5/21/2026 17:00,0,1,0,0,1,,1,1
5/21/2026 18:00,0,0,0,0,0,,0,0
5/21/2026 19:00,0,1,0,0,0,,1,1
5/21/2026 20:00,0,1,0,0,0,,1,1
5/21/2026 21:00,0,0,0,0,0,,0,0
5/21/2026 22:00,0,0,0,0,0,,0,0
5/21/2026 23:00,0,0,0,0,0,,0,0
Bicycles on Road,,,,,,,,
Entry,n/a,,,n/a,,,,
Direction,Eastbound,,,Westbound,,,,
Start Time,Lane 1,Lane 2,Lane 3,Lane 1,Lane 2,,,
5/15/2026 0:00,0,0,0,0,0,,0,0
5/15/2026 1:00,0,0,0,0,0,,0,0
5/15/2026 2:00,0,0,0,0,0,,0,0
5/15/2026 3:00,0,0,0,0,0,,0,0
5/15/2026 4:00,0,0,0,0,0,,0,0
5/15/2026 5:00,0,0,0,0,0,,0,0
5/15/2026 6:00,0,0,0,0,0,,0,0
5/15/2026 7:00,0,0,0,0,0,,0,0
5/15/2026 8:00,0,0,0,0,0,,0,0
5/15/2026 9:00,2,0,0,0,0,,2,0
5/15/2026 10:00,0,0,0,0,0,,0,0
5/15/2026 11:00,0,0,0,2,0,,0,2
5/15/2026 12:00,0,0,0,0,0,,0,0
5/15/2026 13:00,0,0,0,1,0,,0,1
5/15/2026 14:00,0,0,0,1,0,,0,1
5/15/2026 15:00,1,0,0,0,0,,1,0
5/15/2026 16:00,1,0,0,0,0,,1,0
5/15/2026 17:00,1,0,0,1,0,,1,1
5/15/2026 18:00,0,0,0,0,0,,0,0
5/15/2026 19:00,0,0,0,0,0,,0,0
5/15/2026 20:00,0,0,0,0,0,,0,0
5/15/2026 21:00,0,0,0,2,0,,0,2
5/15/2026 22:00,0,0,0,0,0,,0,0
5/15/2026 23:00,0,0,0,0,0,,0,0
5/16/2026 0:00,0,0,0,0,0,,0,0
5/16/2026 1:00,0,0,0,0,0,,0,0
5/16/2026 2:00,0,0,0,0,0,,0,0
5/16/2026 3:00,0,0,0,0,0,,0,0
5/16/2026 4:00,0,0,0,0,0,,0,0
5/16/2026 5:00,0,0,0,0,0,,0,0
5/16/2026 6:00,1,0,0,1,0,,1,1
5/16/2026 7:00,1,0,0,2,0,,1,2
5/16/2026 8:00,1,0,0,1,0,,1,1
5/16/2026 9:00,0,0,0,2,0,,0,2
5/16/2026 10:00,0,0,0,3,0,,0,3
5/16/2026 11:00,1,0,0,4,0,,1,4
5/16/2026 12:00,2,0,0,0,0,,2,0
5/16/2026 13:00,2,0,0,0,0,,2,0
5/16/2026 14:00,1,0,0,2,0,,1,2
5/16/2026 15:00,1,0,0,0,0,,1,0
5/16/2026 16:00,0,0,0,2,0,,0,2
5/16/2026 17:00,0,0,0,0,0,,0,0
5/16/2026 18:00,2,0,0,2,0,,2,2
5/16/2026 19:00,0,1,0,0,0,,1,1
5/16/2026 20:00,0,0,0,0,0,,0,0
5/16/2026 21:00,0,0,0,0,0,,0,0
5/16/2026 22:00,0,0,0,0,0,,0,0
5/16/2026 23:00,0,0,0,0,0,,0,0
5/17/2026 0:00,0,0,0,0,0,,0,0
5/17/2026 1:00,0,0,0,0,0,,0,0
5/17/2026 2:00,0,0,0,0,0,,0,0
5/17/2026 3:00,0,0,0,0,0,,0,0
5/17/2026 4:00,0,0,0,0,0,,0,0
5/17/2026 5:00,1,0,0,0,0,,1,0
5/17/2026 6:00,2,0,0,1,0,,2,1
5/17/2026 7:00,1,0,0,0,0,,1,0
5/17/2026 8:00,1,0,0,4,0,,1,4
5/17/2026 9:00,1,0,0,1,0,,1,1
5/17/2026 10:00,0,0,0,4,0,,0,4
5/17/2026 11:00,1,0,0,1,0,,1,1
5/17/2026 12:00,1,0,0,1,0,,1,1
5/17/2026 13:00,3,0,0,0,0,,3,0
5/17/2026 14:00,3,0,0,3,0,,3,3
5/17/2026 15:00,0,0,0,0,0,,0,0
5/17/2026 16:00,1,0,0,1,0,,1,1
5/17/2026 17:00,0,0,0,1,0,,0,1
5/17/2026 18:00,0,0,0,1,0,,0,1
5/17/2026 19:00,0,0,0,0,0,,0,0
5/17/2026 20:00,0,0,0,0,0,,0,0
5/17/2026 21:00,0,0,0,0,0,,0,0
5/17/2026 22:00,0,0,0,0,0,,0,0
5/17/2026 23:00,0,0,0,0,0,,0,0
5/18/2026 0:00,0,0,0,0,0,,0,0
5/18/2026 1:00,0,0,0,0,0,,0,0
5/18/2026 2:00,0,0,0,0,0,,0,0
5/18/2026 3:00,0,0,0,0,0,,0,0
5/18/2026 4:00,0,0,0,0,0,,0,0
5/18/2026 5:00,0,0,0,0,0,,0,0
5/18/2026 6:00,0,0,0,1,0,,0,1
5/18/2026 7:00,0,0,0,0,0,,0,0
5/18/2026 8:00,0,0,0,0,0,,0,0
5/18/2026 9:00,0,0,0,1,0,,0,1
5/18/2026 10:00,0,0,0,3,0,,0,3
5/18/2026 11:00,1,0,0,3,0,,1,3
5/18/2026 12:00,0,0,0,1,0,,0,1
5/18/2026 13:00,1,0,0,0,0,,1,0
5/18/2026 14:00,0,0,0,0,0,,0,0
5/18/2026 15:00,1,0,0,1,0,,1,1
5/18/2026 16:00,0,0,0,0,0,,0,0
5/18/2026 17:00,0,0,0,0,0,,0,0
5/18/2026 18:00,0,0,0,0,0,,0,0
5/18/2026 19:00,0,0,0,0,0,,0,0
5/18/2026 20:00,1,0,0,0,0,,1,0
5/18/2026 21:00,0,0,0,0,0,,0,0
5/18/2026 22:00,0,0,0,0,0,,0,0
5/18/2026 23:00,0,0,0,0,0,,0,0
5/19/2026 0:00,0,0,0,1,0,,0,1
5/19/2026 1:00,0,0,0,0,0,,0,0
5/19/2026 2:00,0,0,0,0,0,,0,0
5/19/2026 3:00,0,0,0,0,0,,0,0
5/19/2026 4:00,0,0,0,0,0,,0,0
5/19/2026 5:00,0,0,0,0,0,,0,0
5/19/2026 6:00,0,0,0,0,0,,0,0
5/19/2026 7:00,0,0,0,1,0,,0,1
5/19/2026 8:00,0,0,0,0,0,,0,0
5/19/2026 9:00,0,0,0,1,0,,0,1
5/19/2026 10:00,1,0,0,2,0,,1,2
5/19/2026 11:00,0,0,0,0,0,,0,0
5/19/2026 12:00,0,0,0,0,0,,0,0
5/19/2026 13:00,0,0,0,1,0,,0,1
5/19/2026 14:00,1,0,0,1,0,,1,1
5/19/2026 15:00,0,0,0,0,0,,0,0
5/19/2026 16:00,1,0,0,0,0,,1,0
5/19/2026 17:00,0,0,0,0,0,,0,0
5/19/2026 18:00,0,0,0,0,0,,0,0
5/19/2026 19:00,0,0,0,0,0,,0,0
5/19/2026 20:00,0,0,0,0,0,,0,0
5/19/2026 21:00,0,0,0,0,0,,0,0
5/19/2026 22:00,0,0,0,0,0,,0,0
5/19/2026 23:00,0,0,0,0,0,,0,0
5/20/2026 0:00,0,0,0,0,0,,0,0
5/20/2026 1:00,0,0,0,0,0,,0,0
5/20/2026 2:00,0,0,0,0,0,,0,0
5/20/2026 3:00,0,0,0,0,0,,0,0
5/20/2026 4:00,0,0,0,0,0,,0,0
5/20/2026 5:00,0,0,0,0,0,,0,0
5/20/2026 6:00,0,0,0,0,0,,0,0
5/20/2026 7:00,0,0,0,0,0,,0,0
5/20/2026 8:00,1,0,0,1,0,,1,1
5/20/2026 9:00,0,0,0,2,0,,0,2
5/20/2026 10:00,3,0,0,2,0,,3,2
5/20/2026 11:00,0,0,0,0,0,,0,0
5/20/2026 12:00,1,0,0,0,0,,1,0
5/20/2026 13:00,0,0,0,0,0,,0,0
5/20/2026 14:00,0,0,0,0,0,,0,0
5/20/2026 15:00,0,0,0,0,0,,0,0
5/20/2026 16:00,0,0,0,0,0,,0,0
5/20/2026 17:00,0,0,0,0,0,,0,0
5/20/2026 18:00,0,0,0,1,0,,0,1
5/20/2026 19:00,0,0,0,0,0,,0,0
5/20/2026 20:00,0,0,0,0,0,,0,0
5/20/2026 21:00,0,0,0,0,0,,0,0
5/20/2026 22:00,0,0,0,0,0,,0,0
5/20/2026 23:00,0,0,0,0,0,,0,0
5/21/2026 0:00,0,0,0,0,0,,0,0
5/21/2026 1:00,0,0,0,0,0,,0,0
5/21/2026 2:00,0,0,0,0,0,,0,0
5/21/2026 3:00,0,0,0,0,0,,0,0
5/21/2026 4:00,0,0,0,0,0,,0,0
5/21/2026 5:00,0,0,0,0,0,,0,0
5/21/2026 6:00,0,0,0,0,0,,0,0
5/21/2026 7:00,0,0,0,0,0,,0,0
5/21/2026 8:00,0,0,0,0,0,,0,0
5/21/2026 9:00,0,0,0,1,0,,0,1
5/21/2026 10:00,1,0,0,0,0,,1,0
5/21/2026 11:00,0,0,0,1,0,,0,1
5/21/2026 12:00,0,0,0,0,0,,0,0
5/21/2026 13:00,0,0,0,0,0,,0,0
5/21/2026 14:00,0,0,0,0,0,,0,0
5/21/2026 15:00,0,0,0,0,0,,0,0
5/21/2026 16:00,0,0,0,0,0,,0,0
5/21/2026 17:00,0,0,0,0,0,,0,0
5/21/2026 18:00,0,0,0,0,0,,0,0
5/21/2026 19:00,0,0,0,0,0,,0,0
5/21/2026 20:00,0,0,0,0,0,,0,0
5/21/2026 21:00,0,0,0,0,0,,0,0
5/21/2026 22:00,0,0,0,0,0,,0,0
5/21/2026 23:00,0,0,0,0,0,,0,0
