"ATR 12. Weekstown Rd  btwn Columbia Rd & Indian Cabin Rd"
4/30/2026
12:00 PM
"ATR12"
""
"Weekstown Rd"
"btwn Columbia Rd & Indian Cabin Rd"
39.584008
-74.698885
"Number","Date","Time","EB  Weekstown Rd","WB  Weekstown Rd"
1,4/30/2026,12:00 PM,0,0
2,4/30/2026,12:15 PM,0,3
3,4/30/2026,12:30 PM,8,7
4,4/30/2026,12:45 PM,4,3
5,4/30/2026,1:00 PM,4,5
6,4/30/2026,1:15 PM,6,9
7,4/30/2026,1:30 PM,9,6
8,4/30/2026,1:45 PM,5,7
9,4/30/2026,2:00 PM,5,5
10,4/30/2026,2:15 PM,7,15
11,4/30/2026,2:30 PM,9,9
12,4/30/2026,2:45 PM,13,8
13,4/30/2026,3:00 PM,14,8
14,4/30/2026,3:15 PM,12,20
15,4/30/2026,3:30 PM,6,17
16,4/30/2026,3:45 PM,7,18
17,4/30/2026,4:00 PM,12,12
18,4/30/2026,4:15 PM,14,5
19,4/30/2026,4:30 PM,16,13
20,4/30/2026,4:45 PM,21,18
21,4/30/2026,5:00 PM,17,10
22,4/30/2026,5:15 PM,9,19
23,4/30/2026,5:30 PM,14,18
24,4/30/2026,5:45 PM,10,5
25,4/30/2026,6:00 PM,8,11
26,4/30/2026,6:15 PM,4,8
27,4/30/2026,6:30 PM,6,10
28,4/30/2026,6:45 PM,3,7
29,4/30/2026,7:00 PM,0,8
30,4/30/2026,7:15 PM,8,7
31,4/30/2026,7:30 PM,8,5
32,4/30/2026,7:45 PM,7,3
33,4/30/2026,8:00 PM,6,11
34,4/30/2026,8:15 PM,6,5
35,4/30/2026,8:30 PM,2,6
36,4/30/2026,8:45 PM,4,4
37,4/30/2026,9:00 PM,0,3
38,4/30/2026,9:15 PM,3,5
39,4/30/2026,9:30 PM,2,1
40,4/30/2026,9:45 PM,3,2
41,4/30/2026,10:00 PM,2,1
42,4/30/2026,10:15 PM,1,1
43,4/30/2026,10:30 PM,0,1
44,4/30/2026,10:45 PM,0,2
45,4/30/2026,11:00 PM,1,0
46,4/30/2026,11:15 PM,2,0
47,4/30/2026,11:30 PM,0,0
48,4/30/2026,11:45 PM,0,0
49,5/1/2026,12:00 AM,1,0
50,5/1/2026,12:15 AM,1,0
51,5/1/2026,12:30 AM,0,1
52,5/1/2026,12:45 AM,0,0
53,5/1/2026,1:00 AM,0,2
54,5/1/2026,1:15 AM,0,1
55,5/1/2026,1:30 AM,0,1
56,5/1/2026,1:45 AM,0,0
57,5/1/2026,2:00 AM,0,1
58,5/1/2026,2:15 AM,0,0
59,5/1/2026,2:30 AM,2,1
60,5/1/2026,2:45 AM,0,0
61,5/1/2026,3:00 AM,0,1
62,5/1/2026,3:15 AM,1,0
63,5/1/2026,3:30 AM,0,1
64,5/1/2026,3:45 AM,0,0
65,5/1/2026,4:00 AM,1,1
66,5/1/2026,4:15 AM,1,1
67,5/1/2026,4:30 AM,0,1
68,5/1/2026,4:45 AM,1,1
69,5/1/2026,5:00 AM,1,1
70,5/1/2026,5:15 AM,2,2
71,5/1/2026,5:30 AM,2,2
72,5/1/2026,5:45 AM,3,3
73,5/1/2026,6:00 AM,3,4
74,5/1/2026,6:15 AM,8,8
75,5/1/2026,6:30 AM,10,5
76,5/1/2026,6:45 AM,17,7
77,5/1/2026,7:00 AM,5,2
78,5/1/2026,7:15 AM,9,4
79,5/1/2026,7:30 AM,11,5
80,5/1/2026,7:45 AM,7,9
81,5/1/2026,8:00 AM,17,4
82,5/1/2026,8:15 AM,21,7
83,5/1/2026,8:30 AM,15,15
84,5/1/2026,8:45 AM,7,8
85,5/1/2026,9:00 AM,6,8
86,5/1/2026,9:15 AM,11,8
87,5/1/2026,9:30 AM,4,3
88,5/1/2026,9:45 AM,6,8
89,5/1/2026,10:00 AM,6,2
90,5/1/2026,10:15 AM,7,11
91,5/1/2026,10:30 AM,12,9
92,5/1/2026,10:45 AM,5,4
93,5/1/2026,11:00 AM,8,5
94,5/1/2026,11:15 AM,13,7
95,5/1/2026,11:30 AM,5,10
96,5/1/2026,11:45 AM,7,7
97,5/1/2026,12:00 PM,9,14
98,5/1/2026,12:15 PM,11,3
99,5/1/2026,12:30 PM,8,6
100,5/1/2026,12:45 PM,4,8
101,5/1/2026,1:00 PM,10,7
102,5/1/2026,1:15 PM,8,7
103,5/1/2026,1:30 PM,9,7
104,5/1/2026,1:45 PM,10,5
105,5/1/2026,2:00 PM,11,13
106,5/1/2026,2:15 PM,10,7
107,5/1/2026,2:30 PM,11,9
108,5/1/2026,2:45 PM,9,13
109,5/1/2026,3:00 PM,11,14
110,5/1/2026,3:15 PM,15,11
111,5/1/2026,3:30 PM,12,27
112,5/1/2026,3:45 PM,9,21
113,5/1/2026,4:00 PM,7,9
114,5/1/2026,4:15 PM,5,8
115,5/1/2026,4:30 PM,6,11
116,5/1/2026,4:45 PM,12,11
117,5/1/2026,5:00 PM,9,18
118,5/1/2026,5:15 PM,11,23
119,5/1/2026,5:30 PM,6,30
120,5/1/2026,5:45 PM,13,19
121,5/1/2026,6:00 PM,10,9
122,5/1/2026,6:15 PM,7,8
123,5/1/2026,6:30 PM,15,11
124,5/1/2026,6:45 PM,11,7
125,5/1/2026,7:00 PM,5,8
126,5/1/2026,7:15 PM,3,14
127,5/1/2026,7:30 PM,6,5
128,5/1/2026,7:45 PM,6,8
129,5/1/2026,8:00 PM,5,4
130,5/1/2026,8:15 PM,4,3
131,5/1/2026,8:30 PM,6,4
132,5/1/2026,8:45 PM,4,9
133,5/1/2026,9:00 PM,4,10
134,5/1/2026,9:15 PM,3,3
135,5/1/2026,9:30 PM,9,5
136,5/1/2026,9:45 PM,8,5
137,5/1/2026,10:00 PM,3,6
138,5/1/2026,10:15 PM,9,3
139,5/1/2026,10:30 PM,2,0
140,5/1/2026,10:45 PM,1,1
141,5/1/2026,11:00 PM,1,0
142,5/1/2026,11:15 PM,3,0
143,5/1/2026,11:30 PM,1,0
144,5/1/2026,11:45 PM,1,1
145,5/2/2026,12:00 AM,1,0
146,5/2/2026,12:15 AM,0,1
147,5/2/2026,12:30 AM,0,0
148,5/2/2026,12:45 AM,0,1
149,5/2/2026,1:00 AM,0,0
150,5/2/2026,1:15 AM,0,1
151,5/2/2026,1:30 AM,0,1
152,5/2/2026,1:45 AM,0,0
153,5/2/2026,2:00 AM,0,0
154,5/2/2026,2:15 AM,0,0
155,5/2/2026,2:30 AM,1,0
156,5/2/2026,2:45 AM,0,0
157,5/2/2026,3:00 AM,0,0
158,5/2/2026,3:15 AM,0,0
159,5/2/2026,3:30 AM,0,0
160,5/2/2026,3:45 AM,0,1
161,5/2/2026,4:00 AM,0,0
162,5/2/2026,4:15 AM,1,0
163,5/2/2026,4:30 AM,0,0
164,5/2/2026,4:45 AM,1,0
165,5/2/2026,5:00 AM,0,1
166,5/2/2026,5:15 AM,1,0
167,5/2/2026,5:30 AM,1,1
168,5/2/2026,5:45 AM,1,2
169,5/2/2026,6:00 AM,0,0
170,5/2/2026,6:15 AM,0,2
171,5/2/2026,6:30 AM,4,3
172,5/2/2026,6:45 AM,2,2
173,5/2/2026,7:00 AM,3,2
174,5/2/2026,7:15 AM,5,2
175,5/2/2026,7:30 AM,7,4
176,5/2/2026,7:45 AM,5,6
177,5/2/2026,8:00 AM,5,3
178,5/2/2026,8:15 AM,7,6
179,5/2/2026,8:30 AM,10,2
180,5/2/2026,8:45 AM,9,7
181,5/2/2026,9:00 AM,8,10
182,5/2/2026,9:15 AM,6,4
183,5/2/2026,9:30 AM,8,6
184,5/2/2026,9:45 AM,8,7
185,5/2/2026,10:00 AM,5,13
186,5/2/2026,10:15 AM,13,6
187,5/2/2026,10:30 AM,17,12
188,5/2/2026,10:45 AM,8,10
189,5/2/2026,11:00 AM,10,9
190,5/2/2026,11:15 AM,8,13
191,5/2/2026,11:30 AM,15,14
192,5/2/2026,11:45 AM,8,5
193,5/2/2026,12:00 PM,9,6
194,5/2/2026,12:15 PM,2,7
195,5/2/2026,12:30 PM,12,7
196,5/2/2026,12:45 PM,11,10
197,5/2/2026,1:00 PM,10,9
198,5/2/2026,1:15 PM,7,18
199,5/2/2026,1:30 PM,6,4
200,5/2/2026,1:45 PM,6,11
201,5/2/2026,2:00 PM,11,4
202,5/2/2026,2:15 PM,6,6
203,5/2/2026,2:30 PM,9,7
204,5/2/2026,2:45 PM,6,8
205,5/2/2026,3:00 PM,12,12
206,5/2/2026,3:15 PM,7,12
207,5/2/2026,3:30 PM,7,4
208,5/2/2026,3:45 PM,7,17
209,5/2/2026,4:00 PM,7,6
210,5/2/2026,4:15 PM,10,13
211,5/2/2026,4:30 PM,9,9
212,5/2/2026,4:45 PM,13,12
213,5/2/2026,5:00 PM,4,9
214,5/2/2026,5:15 PM,12,4
215,5/2/2026,5:30 PM,6,9
216,5/2/2026,5:45 PM,7,6
217,5/2/2026,6:00 PM,6,11
218,5/2/2026,6:15 PM,9,5
219,5/2/2026,6:30 PM,6,7
220,5/2/2026,6:45 PM,6,8
221,5/2/2026,7:00 PM,5,3
222,5/2/2026,7:15 PM,1,7
223,5/2/2026,7:30 PM,7,5
224,5/2/2026,7:45 PM,5,6
225,5/2/2026,8:00 PM,4,3
226,5/2/2026,8:15 PM,8,12
227,5/2/2026,8:30 PM,5,5
228,5/2/2026,8:45 PM,0,5
229,5/2/2026,9:00 PM,6,3
230,5/2/2026,9:15 PM,4,1
231,5/2/2026,9:30 PM,4,3
232,5/2/2026,9:45 PM,3,1
233,5/2/2026,10:00 PM,5,1
234,5/2/2026,10:15 PM,3,0
235,5/2/2026,10:30 PM,3,1
236,5/2/2026,10:45 PM,0,2
237,5/2/2026,11:00 PM,3,3
238,5/2/2026,11:15 PM,0,0
239,5/2/2026,11:30 PM,1,2
240,5/2/2026,11:45 PM,2,1
241,5/3/2026,12:00 AM,1,1
242,5/3/2026,12:15 AM,3,1
243,5/3/2026,12:30 AM,0,1
244,5/3/2026,12:45 AM,1,1
245,5/3/2026,1:00 AM,0,0
246,5/3/2026,1:15 AM,0,0
247,5/3/2026,1:30 AM,0,0
248,5/3/2026,1:45 AM,0,1
249,5/3/2026,2:00 AM,3,2
250,5/3/2026,2:15 AM,0,1
251,5/3/2026,2:30 AM,0,0
252,5/3/2026,2:45 AM,0,0
253,5/3/2026,3:00 AM,0,0
254,5/3/2026,3:15 AM,0,0
255,5/3/2026,3:30 AM,0,1
256,5/3/2026,3:45 AM,0,1
257,5/3/2026,4:00 AM,0,0
258,5/3/2026,4:15 AM,0,1
259,5/3/2026,4:30 AM,0,0
260,5/3/2026,4:45 AM,0,0
261,5/3/2026,5:00 AM,1,0
262,5/3/2026,5:15 AM,0,1
263,5/3/2026,5:30 AM,1,1
264,5/3/2026,5:45 AM,0,1
265,5/3/2026,6:00 AM,0,0
266,5/3/2026,6:15 AM,2,1
267,5/3/2026,6:30 AM,2,0
268,5/3/2026,6:45 AM,4,1
269,5/3/2026,7:00 AM,2,4
270,5/3/2026,7:15 AM,3,1
271,5/3/2026,7:30 AM,3,2
272,5/3/2026,7:45 AM,7,3
273,5/3/2026,8:00 AM,3,2
274,5/3/2026,8:15 AM,7,1
275,5/3/2026,8:30 AM,4,4
276,5/3/2026,8:45 AM,5,3
277,5/3/2026,9:00 AM,5,8
278,5/3/2026,9:15 AM,6,1
279,5/3/2026,9:30 AM,5,3
280,5/3/2026,9:45 AM,7,5
281,5/3/2026,10:00 AM,10,6
282,5/3/2026,10:15 AM,9,6
283,5/3/2026,10:30 AM,9,2
284,5/3/2026,10:45 AM,8,8
285,5/3/2026,11:00 AM,7,4
286,5/3/2026,11:15 AM,14,6
287,5/3/2026,11:30 AM,13,8
288,5/3/2026,11:45 AM,11,8
289,5/3/2026,12:00 PM,7,10
290,5/3/2026,12:15 PM,9,13
291,5/3/2026,12:30 PM,10,6
292,5/3/2026,12:45 PM,7,14
293,5/3/2026,1:00 PM,5,7
294,5/3/2026,1:15 PM,9,8
295,5/3/2026,1:30 PM,12,6
296,5/3/2026,1:45 PM,10,13
297,5/3/2026,2:00 PM,6,4
298,5/3/2026,2:15 PM,7,11
299,5/3/2026,2:30 PM,7,8
300,5/3/2026,2:45 PM,9,10
301,5/3/2026,3:00 PM,10,10
302,5/3/2026,3:15 PM,6,13
303,5/3/2026,3:30 PM,10,10
304,5/3/2026,3:45 PM,9,13
305,5/3/2026,4:00 PM,8,11
306,5/3/2026,4:15 PM,10,11
307,5/3/2026,4:30 PM,8,14
308,5/3/2026,4:45 PM,12,15
309,5/3/2026,5:00 PM,9,10
310,5/3/2026,5:15 PM,9,8
311,5/3/2026,5:30 PM,5,8
312,5/3/2026,5:45 PM,6,6
313,5/3/2026,6:00 PM,8,4
314,5/3/2026,6:15 PM,9,6
315,5/3/2026,6:30 PM,8,6
316,5/3/2026,6:45 PM,6,5
317,5/3/2026,7:00 PM,3,7
318,5/3/2026,7:15 PM,7,5
319,5/3/2026,7:30 PM,5,5
320,5/3/2026,7:45 PM,1,3
321,5/3/2026,8:00 PM,2,1
322,5/3/2026,8:15 PM,5,0
323,5/3/2026,8:30 PM,1,2
324,5/3/2026,8:45 PM,4,5
325,5/3/2026,9:00 PM,4,2
326,5/3/2026,9:15 PM,1,3
327,5/3/2026,9:30 PM,1,2
328,5/3/2026,9:45 PM,1,1
329,5/3/2026,10:00 PM,1,1
330,5/3/2026,10:15 PM,1,4
331,5/3/2026,10:30 PM,1,0
332,5/3/2026,10:45 PM,0,1
333,5/3/2026,11:00 PM,0,0
334,5/3/2026,11:15 PM,1,1
335,5/3/2026,11:30 PM,0,0
336,5/3/2026,11:45 PM,0,0
337,5/4/2026,12:00 AM,0,0
338,5/4/2026,12:15 AM,0,0
339,5/4/2026,12:30 AM,0,0
340,5/4/2026,12:45 AM,1,1
341,5/4/2026,1:00 AM,0,0
342,5/4/2026,1:15 AM,1,0
343,5/4/2026,1:30 AM,2,0
344,5/4/2026,1:45 AM,0,1
345,5/4/2026,2:00 AM,0,0
346,5/4/2026,2:15 AM,0,0
347,5/4/2026,2:30 AM,1,1
348,5/4/2026,2:45 AM,0,0
349,5/4/2026,3:00 AM,0,1
350,5/4/2026,3:15 AM,0,0
351,5/4/2026,3:30 AM,0,1
352,5/4/2026,3:45 AM,1,2
353,5/4/2026,4:00 AM,1,0
354,5/4/2026,4:15 AM,1,3
355,5/4/2026,4:30 AM,1,3
356,5/4/2026,4:45 AM,1,3
357,5/4/2026,5:00 AM,1,6
358,5/4/2026,5:15 AM,2,2
359,5/4/2026,5:30 AM,5,4
360,5/4/2026,5:45 AM,4,7
361,5/4/2026,6:00 AM,2,5
362,5/4/2026,6:15 AM,8,6
363,5/4/2026,6:30 AM,9,8
364,5/4/2026,6:45 AM,7,7
365,5/4/2026,7:00 AM,7,3
366,5/4/2026,7:15 AM,5,2
367,5/4/2026,7:30 AM,11,9
368,5/4/2026,7:45 AM,7,6
369,5/4/2026,8:00 AM,7,8
370,5/4/2026,8:15 AM,19,6
371,5/4/2026,8:30 AM,20,13
372,5/4/2026,8:45 AM,6,3
373,5/4/2026,9:00 AM,7,6
374,5/4/2026,9:15 AM,4,4
375,5/4/2026,9:30 AM,6,3
376,5/4/2026,9:45 AM,3,2
377,5/4/2026,10:00 AM,7,6
378,5/4/2026,10:15 AM,9,7
379,5/4/2026,10:30 AM,4,3
380,5/4/2026,10:45 AM,4,3
381,5/4/2026,11:00 AM,4,3
382,5/4/2026,11:15 AM,2,6
383,5/4/2026,11:30 AM,8,7
384,5/4/2026,11:45 AM,2,3
385,5/4/2026,12:00 PM,2,0
386,5/4/2026,12:15 PM,8,5
387,5/4/2026,12:30 PM,1,7
388,5/4/2026,12:45 PM,13,11
389,5/4/2026,1:00 PM,7,11
390,5/4/2026,1:15 PM,2,6
391,5/4/2026,1:30 PM,2,8
392,5/4/2026,1:45 PM,3,3
393,5/4/2026,2:00 PM,7,8
394,5/4/2026,2:15 PM,7,6
395,5/4/2026,2:30 PM,5,9
396,5/4/2026,2:45 PM,19,9
397,5/4/2026,3:00 PM,11,11
398,5/4/2026,3:15 PM,13,5
399,5/4/2026,3:30 PM,8,21
400,5/4/2026,3:45 PM,12,18
401,5/4/2026,4:00 PM,9,7
402,5/4/2026,4:15 PM,11,10
403,5/4/2026,4:30 PM,20,17
404,5/4/2026,4:45 PM,13,12
405,5/4/2026,5:00 PM,21,11
406,5/4/2026,5:15 PM,11,13
407,5/4/2026,5:30 PM,7,11
408,5/4/2026,5:45 PM,7,6
409,5/4/2026,6:00 PM,7,7
410,5/4/2026,6:15 PM,7,8
411,5/4/2026,6:30 PM,8,7
412,5/4/2026,6:45 PM,9,7
413,5/4/2026,7:00 PM,4,6
414,5/4/2026,7:15 PM,6,10
415,5/4/2026,7:30 PM,6,12
416,5/4/2026,7:45 PM,2,5
417,5/4/2026,8:00 PM,2,6
418,5/4/2026,8:15 PM,4,5
419,5/4/2026,8:30 PM,8,3
420,5/4/2026,8:45 PM,2,5
421,5/4/2026,9:00 PM,1,3
422,5/4/2026,9:15 PM,1,1
423,5/4/2026,9:30 PM,0,5
424,5/4/2026,9:45 PM,1,0
425,5/4/2026,10:00 PM,0,2
426,5/4/2026,10:15 PM,1,0
427,5/4/2026,10:30 PM,1,0
428,5/4/2026,10:45 PM,1,2
429,5/4/2026,11:00 PM,0,0
430,5/4/2026,11:15 PM,0,0
431,5/4/2026,11:30 PM,1,1
432,5/4/2026,11:45 PM,1,0
433,5/5/2026,12:00 AM,0,1
434,5/5/2026,12:15 AM,0,1
435,5/5/2026,12:30 AM,0,0
436,5/5/2026,12:45 AM,0,0
437,5/5/2026,1:00 AM,0,0
438,5/5/2026,1:15 AM,1,0
439,5/5/2026,1:30 AM,0,0
440,5/5/2026,1:45 AM,0,0
441,5/5/2026,2:00 AM,0,0
442,5/5/2026,2:15 AM,0,1
443,5/5/2026,2:30 AM,0,0
444,5/5/2026,2:45 AM,0,0
445,5/5/2026,3:00 AM,0,1
446,5/5/2026,3:15 AM,2,1
447,5/5/2026,3:30 AM,0,1
448,5/5/2026,3:45 AM,0,0
449,5/5/2026,4:00 AM,1,0
450,5/5/2026,4:15 AM,0,3
451,5/5/2026,4:30 AM,0,2
452,5/5/2026,4:45 AM,0,4
453,5/5/2026,5:00 AM,3,4
454,5/5/2026,5:15 AM,2,3
455,5/5/2026,5:30 AM,5,2
456,5/5/2026,5:45 AM,4,3
457,5/5/2026,6:00 AM,3,6
458,5/5/2026,6:15 AM,7,2
459,5/5/2026,6:30 AM,16,7
460,5/5/2026,6:45 AM,9,3
461,5/5/2026,7:00 AM,12,6
462,5/5/2026,7:15 AM,6,5
463,5/5/2026,7:30 AM,8,8
464,5/5/2026,7:45 AM,12,7
465,5/5/2026,8:00 AM,13,5
466,5/5/2026,8:15 AM,28,4
467,5/5/2026,8:30 AM,15,23
468,5/5/2026,8:45 AM,5,8
469,5/5/2026,9:00 AM,6,10
470,5/5/2026,9:15 AM,3,2
471,5/5/2026,9:30 AM,4,3
472,5/5/2026,9:45 AM,4,2
473,5/5/2026,10:00 AM,2,1
474,5/5/2026,10:15 AM,3,5
475,5/5/2026,10:30 AM,8,3
476,5/5/2026,10:45 AM,10,3
477,5/5/2026,11:00 AM,8,5
478,5/5/2026,11:15 AM,5,5
479,5/5/2026,11:30 AM,4,8
480,5/5/2026,11:45 AM,5,4
481,5/5/2026,12:00 PM,5,6
482,5/5/2026,12:15 PM,7,8
483,5/5/2026,12:30 PM,6,4
484,5/5/2026,12:45 PM,6,7
485,5/5/2026,1:00 PM,5,6
486,5/5/2026,1:15 PM,12,10
487,5/5/2026,1:30 PM,7,5
488,5/5/2026,1:45 PM,8,8
489,5/5/2026,2:00 PM,4,3
490,5/5/2026,2:15 PM,14,7
491,5/5/2026,2:30 PM,6,8
492,5/5/2026,2:45 PM,10,8
493,5/5/2026,3:00 PM,21,5
494,5/5/2026,3:15 PM,10,15
495,5/5/2026,3:30 PM,7,30
496,5/5/2026,3:45 PM,10,27
497,5/5/2026,4:00 PM,11,13
498,5/5/2026,4:15 PM,14,6
499,5/5/2026,4:30 PM,19,11
500,5/5/2026,4:45 PM,21,12
501,5/5/2026,5:00 PM,18,19
502,5/5/2026,5:15 PM,8,12
503,5/5/2026,5:30 PM,13,12
504,5/5/2026,5:45 PM,12,9
505,5/5/2026,6:00 PM,6,5
506,5/5/2026,6:15 PM,7,10
507,5/5/2026,6:30 PM,4,7
508,5/5/2026,6:45 PM,10,11
509,5/5/2026,7:00 PM,1,10
510,5/5/2026,7:15 PM,7,13
511,5/5/2026,7:30 PM,6,6
512,5/5/2026,7:45 PM,5,5
513,5/5/2026,8:00 PM,3,1
514,5/5/2026,8:15 PM,2,5
515,5/5/2026,8:30 PM,5,6
516,5/5/2026,8:45 PM,2,3
517,5/5/2026,9:00 PM,4,2
518,5/5/2026,9:15 PM,0,2
519,5/5/2026,9:30 PM,0,0
520,5/5/2026,9:45 PM,0,2
521,5/5/2026,10:00 PM,0,3
522,5/5/2026,10:15 PM,1,1
523,5/5/2026,10:30 PM,0,1
524,5/5/2026,10:45 PM,1,3
525,5/5/2026,11:00 PM,1,0
526,5/5/2026,11:15 PM,0,1
527,5/5/2026,11:30 PM,0,0
528,5/5/2026,11:45 PM,0,0
529,5/6/2026,12:00 AM,0,0
530,5/6/2026,12:15 AM,1,1
531,5/6/2026,12:30 AM,0,0
532,5/6/2026,12:45 AM,1,0
533,5/6/2026,1:00 AM,0,0
534,5/6/2026,1:15 AM,1,0
535,5/6/2026,1:30 AM,0,0
536,5/6/2026,1:45 AM,0,0
537,5/6/2026,2:00 AM,0,0
538,5/6/2026,2:15 AM,0,0
539,5/6/2026,2:30 AM,1,1
540,5/6/2026,2:45 AM,0,0
541,5/6/2026,3:00 AM,0,1
542,5/6/2026,3:15 AM,0,1
543,5/6/2026,3:30 AM,0,1
544,5/6/2026,3:45 AM,0,0
545,5/6/2026,4:00 AM,0,0
546,5/6/2026,4:15 AM,0,3
547,5/6/2026,4:30 AM,0,3
548,5/6/2026,4:45 AM,2,2
549,5/6/2026,5:00 AM,0,5
550,5/6/2026,5:15 AM,2,3
551,5/6/2026,5:30 AM,3,7
552,5/6/2026,5:45 AM,5,2
553,5/6/2026,6:00 AM,3,6
554,5/6/2026,6:15 AM,3,4
555,5/6/2026,6:30 AM,8,6
556,5/6/2026,6:45 AM,12,9
557,5/6/2026,7:00 AM,8,3
558,5/6/2026,7:15 AM,9,8
559,5/6/2026,7:30 AM,6,5
560,5/6/2026,7:45 AM,3,3
561,5/6/2026,8:00 AM,8,2
562,5/6/2026,8:15 AM,19,4
563,5/6/2026,8:30 AM,15,9
564,5/6/2026,8:45 AM,7,10
565,5/6/2026,9:00 AM,2,9
566,5/6/2026,9:15 AM,9,5
567,5/6/2026,9:30 AM,3,6
568,5/6/2026,9:45 AM,6,5
569,5/6/2026,10:00 AM,8,1
570,5/6/2026,10:15 AM,8,3
571,5/6/2026,10:30 AM,5,3
572,5/6/2026,10:45 AM,5,4
573,5/6/2026,11:00 AM,5,9
574,5/6/2026,11:15 AM,5,8
575,5/6/2026,11:30 AM,5,6
576,5/6/2026,11:45 AM,4,8
577,5/6/2026,12:00 PM,4,7
578,5/6/2026,12:15 PM,5,5
579,5/6/2026,12:30 PM,8,6
580,5/6/2026,12:45 PM,8,6
581,5/6/2026,1:00 PM,8,7
582,5/6/2026,1:15 PM,8,6
583,5/6/2026,1:30 PM,4,7
584,5/6/2026,1:45 PM,7,11
585,5/6/2026,2:00 PM,7,5
586,5/6/2026,2:15 PM,4,4
587,5/6/2026,2:30 PM,10,12
588,5/6/2026,2:45 PM,10,5
589,5/6/2026,3:00 PM,22,8
590,5/6/2026,3:15 PM,10,16
591,5/6/2026,3:30 PM,7,24
592,5/6/2026,3:45 PM,3,16
593,5/6/2026,4:00 PM,10,14
594,5/6/2026,4:15 PM,6,6
595,5/6/2026,4:30 PM,4,8
596,5/6/2026,4:45 PM,12,14
597,5/6/2026,5:00 PM,15,10
598,5/6/2026,5:15 PM,13,11
599,5/6/2026,5:30 PM,12,17
600,5/6/2026,5:45 PM,9,6
601,5/6/2026,6:00 PM,11,12
602,5/6/2026,6:15 PM,18,4
603,5/6/2026,6:30 PM,12,12
604,5/6/2026,6:45 PM,13,10
605,5/6/2026,7:00 PM,6,9
606,5/6/2026,7:15 PM,4,5
607,5/6/2026,7:30 PM,4,10
608,5/6/2026,7:45 PM,2,10
609,5/6/2026,8:00 PM,0,6
610,5/6/2026,8:15 PM,4,3
611,5/6/2026,8:30 PM,2,4
612,5/6/2026,8:45 PM,5,3
613,5/6/2026,9:00 PM,2,10
614,5/6/2026,9:15 PM,2,3
615,5/6/2026,9:30 PM,0,4
616,5/6/2026,9:45 PM,0,2
617,5/6/2026,10:00 PM,2,1
618,5/6/2026,10:15 PM,0,4
619,5/6/2026,10:30 PM,3,9
620,5/6/2026,10:45 PM,1,3
621,5/6/2026,11:00 PM,1,0
622,5/6/2026,11:15 PM,0,1
623,5/6/2026,11:30 PM,2,2
624,5/6/2026,11:45 PM,0,1
625,5/7/2026,12:00 AM,0,0
626,5/7/2026,12:15 AM,0,0
627,5/7/2026,12:30 AM,0,0
628,5/7/2026,12:45 AM,0,2
629,5/7/2026,1:00 AM,0,0
630,5/7/2026,1:15 AM,0,0
631,5/7/2026,1:30 AM,0,0
632,5/7/2026,1:45 AM,0,0
633,5/7/2026,2:00 AM,0,0
634,5/7/2026,2:15 AM,0,0
635,5/7/2026,2:30 AM,1,0
636,5/7/2026,2:45 AM,0,0
637,5/7/2026,3:00 AM,0,1
638,5/7/2026,3:15 AM,0,0
639,5/7/2026,3:30 AM,0,2
640,5/7/2026,3:45 AM,0,0
641,5/7/2026,4:00 AM,1,0
642,5/7/2026,4:15 AM,0,3
643,5/7/2026,4:30 AM,1,2
644,5/7/2026,4:45 AM,2,4
645,5/7/2026,5:00 AM,0,4
646,5/7/2026,5:15 AM,3,1
647,5/7/2026,5:30 AM,4,2
648,5/7/2026,5:45 AM,7,4
649,5/7/2026,6:00 AM,4,5
650,5/7/2026,6:15 AM,2,5
651,5/7/2026,6:30 AM,11,2
652,5/7/2026,6:45 AM,15,6
653,5/7/2026,7:00 AM,8,4
654,5/7/2026,7:15 AM,10,4
655,5/7/2026,7:30 AM,10,5
656,5/7/2026,7:45 AM,8,7
657,5/7/2026,8:00 AM,17,6
658,5/7/2026,8:15 AM,17,3
659,5/7/2026,8:30 AM,16,14
660,5/7/2026,8:45 AM,9,5
661,5/7/2026,9:00 AM,6,1
662,5/7/2026,9:15 AM,6,5
663,5/7/2026,9:30 AM,3,5
664,5/7/2026,9:45 AM,6,3
665,5/7/2026,10:00 AM,7,5
666,5/7/2026,10:15 AM,8,8
667,5/7/2026,10:30 AM,3,6
668,5/7/2026,10:45 AM,3,6
669,5/7/2026,11:00 AM,6,2
670,5/7/2026,11:15 AM,7,8
671,5/7/2026,11:30 AM,5,4
672,5/7/2026,11:45 AM,7,4
673,5/7/2026,12:00 PM,4,5
674,5/7/2026,12:15 PM,9,6
675,5/7/2026,12:30 PM,3,3
676,5/7/2026,12:45 PM,3,4
677,5/7/2026,1:00 PM,5,8
678,5/7/2026,1:15 PM,4,4
679,5/7/2026,1:30 PM,6,8
680,5/7/2026,1:45 PM,2,4
681,5/7/2026,2:00 PM,4,3
682,5/7/2026,2:15 PM,9,11
683,5/7/2026,2:30 PM,10,9
684,5/7/2026,2:45 PM,9,13
685,5/7/2026,3:00 PM,10,5
686,5/7/2026,3:15 PM,12,18
687,5/7/2026,3:30 PM,10,20
688,5/7/2026,3:45 PM,8,23
689,5/7/2026,4:00 PM,9,19
690,5/7/2026,4:15 PM,9,7
691,5/7/2026,4:30 PM,10,11
692,5/7/2026,4:45 PM,16,13
693,5/7/2026,5:00 PM,12,8
694,5/7/2026,5:15 PM,13,8
695,5/7/2026,5:30 PM,11,12
696,5/7/2026,5:45 PM,12,7
697,5/7/2026,6:00 PM,8,11
698,5/7/2026,6:15 PM,8,14
699,5/7/2026,6:30 PM,9,14
700,5/7/2026,6:45 PM,11,9
701,5/7/2026,7:00 PM,6,6
702,5/7/2026,7:15 PM,3,12
703,5/7/2026,7:30 PM,5,3
704,5/7/2026,7:45 PM,2,6
705,5/7/2026,8:00 PM,3,7
706,5/7/2026,8:15 PM,4,1
707,5/7/2026,8:30 PM,2,9
708,5/7/2026,8:45 PM,7,10
709,5/7/2026,9:00 PM,2,6
710,5/7/2026,9:15 PM,1,4
711,5/7/2026,9:30 PM,1,1
712,5/7/2026,9:45 PM,0,0
713,5/7/2026,10:00 PM,1,0
714,5/7/2026,10:15 PM,0,2
715,5/7/2026,10:30 PM,1,2
716,5/7/2026,10:45 PM,2,0
717,5/7/2026,11:00 PM,1,0
718,5/7/2026,11:15 PM,2,0
719,5/7/2026,11:30 PM,1,1
720,5/7/2026,11:45 PM,1,0
721,5/8/2026,12:00 AM,1,1
722,5/8/2026,12:15 AM,1,4
723,5/8/2026,12:30 AM,0,1
724,5/8/2026,12:45 AM,2,0
725,5/8/2026,1:00 AM,0,0
726,5/8/2026,1:15 AM,0,0
727,5/8/2026,1:30 AM,0,1
728,5/8/2026,1:45 AM,0,0
729,5/8/2026,2:00 AM,0,1
730,5/8/2026,2:15 AM,0,0
731,5/8/2026,2:30 AM,1,0
732,5/8/2026,2:45 AM,0,0
733,5/8/2026,3:00 AM,0,1
734,5/8/2026,3:15 AM,0,1
735,5/8/2026,3:30 AM,0,1
736,5/8/2026,3:45 AM,0,0
737,5/8/2026,4:00 AM,1,0
738,5/8/2026,4:15 AM,1,0
739,5/8/2026,4:30 AM,1,1
740,5/8/2026,4:45 AM,2,2
741,5/8/2026,5:00 AM,2,4
742,5/8/2026,5:15 AM,3,0
743,5/8/2026,5:30 AM,3,1
744,5/8/2026,5:45 AM,5,3
745,5/8/2026,6:00 AM,1,4
746,5/8/2026,6:15 AM,6,4
747,5/8/2026,6:30 AM,8,6
748,5/8/2026,6:45 AM,11,4
749,5/8/2026,7:00 AM,10,3
750,5/8/2026,7:15 AM,11,5
751,5/8/2026,7:30 AM,9,4
752,5/8/2026,7:45 AM,10,4
753,5/8/2026,8:00 AM,7,5
754,5/8/2026,8:15 AM,24,9
755,5/8/2026,8:30 AM,19,21
756,5/8/2026,8:45 AM,2,7
757,5/8/2026,9:00 AM,9,4
758,5/8/2026,9:15 AM,7,7
759,5/8/2026,9:30 AM,7,7
760,5/8/2026,9:45 AM,11,6
761,5/8/2026,10:00 AM,7,9
762,5/8/2026,10:15 AM,14,6
763,5/8/2026,10:30 AM,2,8
764,5/8/2026,10:45 AM,10,2
765,5/8/2026,11:00 AM,11,6
766,5/8/2026,11:15 AM,13,6
767,5/8/2026,11:30 AM,8,8
768,5/8/2026,11:45 AM,4,11
