"ATR 12. Weekstown Rd  btwn Columbia Rd & Indian Cabin Rd"
4/30/2026
12:00 PM
"ATR12"
""
"Weekstown Rd"
"btwn Columbia Rd & Indian Cabin Rd"
39.584008
-74.698885
"Number","Date","Time","EB  Weekstown Rd","WB  Weekstown Rd"
1,4/30/2026,12:00 PM,12,13
2,4/30/2026,1:00 PM,24,27
3,4/30/2026,2:00 PM,34,37
4,4/30/2026,3:00 PM,39,63
5,4/30/2026,4:00 PM,63,48
6,4/30/2026,5:00 PM,50,52
7,4/30/2026,6:00 PM,21,36
8,4/30/2026,7:00 PM,23,23
9,4/30/2026,8:00 PM,18,26
10,4/30/2026,9:00 PM,8,11
11,4/30/2026,10:00 PM,3,5
12,4/30/2026,11:00 PM,3,0
13,5/1/2026,12:00 AM,2,1
14,5/1/2026,1:00 AM,0,4
15,5/1/2026,2:00 AM,2,2
16,5/1/2026,3:00 AM,1,2
17,5/1/2026,4:00 AM,3,4
18,5/1/2026,5:00 AM,8,8
19,5/1/2026,6:00 AM,38,24
20,5/1/2026,7:00 AM,32,20
21,5/1/2026,8:00 AM,60,34
22,5/1/2026,9:00 AM,27,27
23,5/1/2026,10:00 AM,30,26
24,5/1/2026,11:00 AM,33,29
25,5/1/2026,12:00 PM,32,31
26,5/1/2026,1:00 PM,37,26
27,5/1/2026,2:00 PM,41,42
28,5/1/2026,3:00 PM,47,73
29,5/1/2026,4:00 PM,30,39
30,5/1/2026,5:00 PM,39,90
31,5/1/2026,6:00 PM,43,35
32,5/1/2026,7:00 PM,20,35
33,5/1/2026,8:00 PM,19,20
34,5/1/2026,9:00 PM,24,23
35,5/1/2026,10:00 PM,15,10
36,5/1/2026,11:00 PM,6,1
37,5/2/2026,12:00 AM,1,2
38,5/2/2026,1:00 AM,0,2
39,5/2/2026,2:00 AM,1,0
40,5/2/2026,3:00 AM,0,1
41,5/2/2026,4:00 AM,2,0
42,5/2/2026,5:00 AM,3,4
43,5/2/2026,6:00 AM,6,7
44,5/2/2026,7:00 AM,20,14
45,5/2/2026,8:00 AM,31,18
46,5/2/2026,9:00 AM,30,27
47,5/2/2026,10:00 AM,43,41
48,5/2/2026,11:00 AM,41,41
49,5/2/2026,12:00 PM,34,30
50,5/2/2026,1:00 PM,29,42
51,5/2/2026,2:00 PM,32,25
52,5/2/2026,3:00 PM,33,45
53,5/2/2026,4:00 PM,39,40
54,5/2/2026,5:00 PM,29,28
55,5/2/2026,6:00 PM,27,31
56,5/2/2026,7:00 PM,18,21
57,5/2/2026,8:00 PM,17,25
58,5/2/2026,9:00 PM,17,8
59,5/2/2026,10:00 PM,11,4
60,5/2/2026,11:00 PM,6,6
61,5/3/2026,12:00 AM,5,4
62,5/3/2026,1:00 AM,0,1
63,5/3/2026,2:00 AM,3,3
64,5/3/2026,3:00 AM,0,2
65,5/3/2026,4:00 AM,0,1
66,5/3/2026,5:00 AM,2,3
67,5/3/2026,6:00 AM,8,2
68,5/3/2026,7:00 AM,15,10
69,5/3/2026,8:00 AM,19,10
70,5/3/2026,9:00 AM,23,17
71,5/3/2026,10:00 AM,36,22
72,5/3/2026,11:00 AM,45,26
73,5/3/2026,12:00 PM,33,43
74,5/3/2026,1:00 PM,36,34
75,5/3/2026,2:00 PM,29,33
76,5/3/2026,3:00 PM,35,46
77,5/3/2026,4:00 PM,38,51
78,5/3/2026,5:00 PM,29,32
79,5/3/2026,6:00 PM,31,21
80,5/3/2026,7:00 PM,16,20
81,5/3/2026,8:00 PM,12,8
82,5/3/2026,9:00 PM,7,8
83,5/3/2026,10:00 PM,3,6
84,5/3/2026,11:00 PM,1,1
85,5/4/2026,12:00 AM,1,1
86,5/4/2026,1:00 AM,3,1
87,5/4/2026,2:00 AM,1,1
88,5/4/2026,3:00 AM,1,4
89,5/4/2026,4:00 AM,4,9
90,5/4/2026,5:00 AM,12,19
91,5/4/2026,6:00 AM,26,26
92,5/4/2026,7:00 AM,30,20
93,5/4/2026,8:00 AM,52,30
94,5/4/2026,9:00 AM,20,15
95,5/4/2026,10:00 AM,24,19
96,5/4/2026,11:00 AM,16,19
97,5/4/2026,12:00 PM,24,23
98,5/4/2026,1:00 PM,14,28
99,5/4/2026,2:00 PM,38,32
100,5/4/2026,3:00 PM,44,55
101,5/4/2026,4:00 PM,53,46
102,5/4/2026,5:00 PM,46,41
103,5/4/2026,6:00 PM,31,29
104,5/4/2026,7:00 PM,18,33
105,5/4/2026,8:00 PM,16,19
106,5/4/2026,9:00 PM,3,9
107,5/4/2026,10:00 PM,3,4
108,5/4/2026,11:00 PM,2,1
109,5/5/2026,12:00 AM,0,2
110,5/5/2026,1:00 AM,1,0
111,5/5/2026,2:00 AM,0,1
112,5/5/2026,3:00 AM,2,3
113,5/5/2026,4:00 AM,1,9
114,5/5/2026,5:00 AM,14,12
115,5/5/2026,6:00 AM,35,18
116,5/5/2026,7:00 AM,38,26
117,5/5/2026,8:00 AM,61,40
118,5/5/2026,9:00 AM,17,17
119,5/5/2026,10:00 AM,23,12
120,5/5/2026,11:00 AM,22,22
121,5/5/2026,12:00 PM,24,25
122,5/5/2026,1:00 PM,32,29
123,5/5/2026,2:00 PM,34,26
124,5/5/2026,3:00 PM,48,77
125,5/5/2026,4:00 PM,65,42
126,5/5/2026,5:00 PM,51,52
127,5/5/2026,6:00 PM,27,33
128,5/5/2026,7:00 PM,19,34
129,5/5/2026,8:00 PM,12,15
130,5/5/2026,9:00 PM,4,6
131,5/5/2026,10:00 PM,2,8
132,5/5/2026,11:00 PM,1,1
133,5/6/2026,12:00 AM,2,1
134,5/6/2026,1:00 AM,1,0
135,5/6/2026,2:00 AM,1,1
136,5/6/2026,3:00 AM,0,3
137,5/6/2026,4:00 AM,2,8
138,5/6/2026,5:00 AM,10,17
139,5/6/2026,6:00 AM,26,25
140,5/6/2026,7:00 AM,26,19
141,5/6/2026,8:00 AM,49,25
142,5/6/2026,9:00 AM,20,25
143,5/6/2026,10:00 AM,26,11
144,5/6/2026,11:00 AM,19,31
145,5/6/2026,12:00 PM,25,24
146,5/6/2026,1:00 PM,27,31
147,5/6/2026,2:00 PM,31,26
148,5/6/2026,3:00 PM,42,64
149,5/6/2026,4:00 PM,32,42
150,5/6/2026,5:00 PM,49,44
151,5/6/2026,6:00 PM,54,38
152,5/6/2026,7:00 PM,16,34
153,5/6/2026,8:00 PM,11,16
154,5/6/2026,9:00 PM,4,19
155,5/6/2026,10:00 PM,6,17
156,5/6/2026,11:00 PM,3,4
157,5/7/2026,12:00 AM,0,2
158,5/7/2026,1:00 AM,0,0
159,5/7/2026,2:00 AM,1,0
160,5/7/2026,3:00 AM,0,3
161,5/7/2026,4:00 AM,4,9
162,5/7/2026,5:00 AM,14,11
163,5/7/2026,6:00 AM,32,18
164,5/7/2026,7:00 AM,36,20
165,5/7/2026,8:00 AM,59,28
166,5/7/2026,9:00 AM,21,14
167,5/7/2026,10:00 AM,21,25
168,5/7/2026,11:00 AM,25,18
169,5/7/2026,12:00 PM,19,18
170,5/7/2026,1:00 PM,17,24
171,5/7/2026,2:00 PM,32,36
172,5/7/2026,3:00 PM,40,66
173,5/7/2026,4:00 PM,44,50
174,5/7/2026,5:00 PM,48,35
175,5/7/2026,6:00 PM,36,48
176,5/7/2026,7:00 PM,16,27
177,5/7/2026,8:00 PM,16,27
178,5/7/2026,9:00 PM,4,11
179,5/7/2026,10:00 PM,4,4
180,5/7/2026,11:00 PM,5,1
181,5/8/2026,12:00 AM,4,6
182,5/8/2026,1:00 AM,0,1
183,5/8/2026,2:00 AM,1,1
184,5/8/2026,3:00 AM,0,3
185,5/8/2026,4:00 AM,5,3
186,5/8/2026,5:00 AM,13,8
187,5/8/2026,6:00 AM,26,18
188,5/8/2026,7:00 AM,40,16
189,5/8/2026,8:00 AM,52,42
190,5/8/2026,9:00 AM,34,24
191,5/8/2026,10:00 AM,33,25
192,5/8/2026,11:00 AM,36,31
