Summary
Study Name,"ATR 56. Route 30, S White Horse Pike, 300 feet East of Korean United Methodist Church"
Project,SJTPO: T-1030051: Data Collection Program
Project Code,T-1030051
Channel Granularity,By Lanes
Bin Size,1 hour
Time Zone,America/New_York
Start Time,2026-05-05 00:00:00 -0400
End Time,2026-05-12 00:00:00 -0400
Location,John Fries ATR 56
Latitude and Longitude,"39.551892,-74.680709"
""
AM Peak,May 05 2026  7AM - 8 AM (0.894)
Midday Peak,May 08 2026  1PM - 2 PM (0.877)
PM Peak (Overall Peak Hour),May 08 2026  3:45PM - 4:45 PM (0.934)
AM Peak (WKND),May 09 2026 10AM - 11 AM (0.904)
Midday Peak (WKND),May 10 2026 11:45AM - 12:45 PM (0.923)
PM Peak (WKND),May 10 2026  2PM - 3 PM (0.966)
Motorcycles
Entry,n/a,"",n/a,""
Direction,Eastbound,"",Westbound,""
Start Time,Lane 1,Lane 2,Lane 1,Lane 2
2026-05-05 00:00:00 -0400,0,0,0,0
2026-05-05 01:00:00 -0400,0,0,0,0
2026-05-05 02:00:00 -0400,0,0,0,0
2026-05-05 03:00:00 -0400,1,0,0,0
2026-05-05 04:00:00 -0400,0,0,0,0
2026-05-05 05:00:00 -0400,1,0,0,0
2026-05-05 06:00:00 -0400,2,1,1,2
2026-05-05 07:00:00 -0400,1,1,1,0
2026-05-05 08:00:00 -0400,0,0,0,1
2026-05-05 09:00:00 -0400,0,0,1,0
2026-05-05 10:00:00 -0400,2,1,1,0
2026-05-05 11:00:00 -0400,0,1,1,0
2026-05-05 12:00:00 -0400,4,1,0,3
2026-05-05 13:00:00 -0400,1,1,3,2
2026-05-05 14:00:00 -0400,3,1,2,1
2026-05-05 15:00:00 -0400,1,2,0,3
2026-05-05 16:00:00 -0400,2,2,6,3
2026-05-05 17:00:00 -0400,1,2,1,3
2026-05-05 18:00:00 -0400,1,5,0,8
2026-05-05 19:00:00 -0400,0,1,2,5
2026-05-05 20:00:00 -0400,3,2,0,1
2026-05-05 21:00:00 -0400,0,0,1,0
2026-05-05 22:00:00 -0400,0,0,0,0
2026-05-05 23:00:00 -0400,0,0,0,0
2026-05-06 00:00:00 -0400,0,0,0,0
2026-05-06 01:00:00 -0400,0,0,0,0
2026-05-06 02:00:00 -0400,0,0,0,0
2026-05-06 03:00:00 -0400,0,0,0,0
2026-05-06 04:00:00 -0400,0,0,0,0
2026-05-06 05:00:00 -0400,0,0,0,0
2026-05-06 06:00:00 -0400,0,0,1,0
2026-05-06 07:00:00 -0400,1,0,0,0
2026-05-06 08:00:00 -0400,0,0,0,1
2026-05-06 09:00:00 -0400,0,0,0,3
2026-05-06 10:00:00 -0400,0,0,0,1
2026-05-06 11:00:00 -0400,1,0,0,0
2026-05-06 12:00:00 -0400,0,0,0,0
2026-05-06 13:00:00 -0400,0,0,0,0
2026-05-06 14:00:00 -0400,0,0,0,0
2026-05-06 15:00:00 -0400,0,0,0,0
2026-05-06 16:00:00 -0400,0,0,0,0
2026-05-06 17:00:00 -0400,1,0,0,2
2026-05-06 18:00:00 -0400,0,1,0,0
2026-05-06 19:00:00 -0400,1,0,0,0
2026-05-06 20:00:00 -0400,0,0,0,0
2026-05-06 21:00:00 -0400,0,0,0,0
2026-05-06 22:00:00 -0400,0,0,0,0
2026-05-06 23:00:00 -0400,0,0,0,0
2026-05-07 00:00:00 -0400,0,0,0,0
2026-05-07 01:00:00 -0400,0,0,0,0
2026-05-07 02:00:00 -0400,0,0,0,0
2026-05-07 03:00:00 -0400,0,0,0,0
2026-05-07 04:00:00 -0400,0,0,0,0
2026-05-07 05:00:00 -0400,0,0,0,0
2026-05-07 06:00:00 -0400,0,0,0,1
2026-05-07 07:00:00 -0400,0,0,0,0
2026-05-07 08:00:00 -0400,0,0,1,0
2026-05-07 09:00:00 -0400,0,0,0,0
2026-05-07 10:00:00 -0400,0,1,0,0
2026-05-07 11:00:00 -0400,0,0,0,0
2026-05-07 12:00:00 -0400,0,0,0,1
2026-05-07 13:00:00 -0400,0,0,1,0
2026-05-07 14:00:00 -0400,0,0,0,1
2026-05-07 15:00:00 -0400,1,0,0,0
2026-05-07 16:00:00 -0400,2,0,1,0
2026-05-07 17:00:00 -0400,0,0,0,1
2026-05-07 18:00:00 -0400,1,1,0,0
2026-05-07 19:00:00 -0400,1,0,1,1
2026-05-07 20:00:00 -0400,1,0,0,0
2026-05-07 21:00:00 -0400,0,0,0,1
2026-05-07 22:00:00 -0400,0,0,0,0
2026-05-07 23:00:00 -0400,0,0,0,0
2026-05-08 00:00:00 -0400,0,0,0,0
2026-05-08 01:00:00 -0400,0,0,0,0
2026-05-08 02:00:00 -0400,1,0,0,0
2026-05-08 03:00:00 -0400,0,0,0,0
2026-05-08 04:00:00 -0400,0,0,0,0
2026-05-08 05:00:00 -0400,0,0,0,0
2026-05-08 06:00:00 -0400,0,0,0,0
2026-05-08 07:00:00 -0400,0,0,0,0
2026-05-08 08:00:00 -0400,0,0,1,1
2026-05-08 09:00:00 -0400,1,0,0,1
2026-05-08 10:00:00 -0400,0,0,0,0
2026-05-08 11:00:00 -0400,0,0,1,0
2026-05-08 12:00:00 -0400,3,2,3,0
2026-05-08 13:00:00 -0400,3,3,1,1
2026-05-08 14:00:00 -0400,0,0,1,1
2026-05-08 15:00:00 -0400,2,1,2,1
2026-05-08 16:00:00 -0400,2,0,1,2
2026-05-08 17:00:00 -0400,0,0,1,2
2026-05-08 18:00:00 -0400,0,3,0,3
2026-05-08 19:00:00 -0400,1,1,1,2
2026-05-08 20:00:00 -0400,0,0,1,0
2026-05-08 21:00:00 -0400,0,0,0,0
2026-05-08 22:00:00 -0400,2,1,0,0
2026-05-08 23:00:00 -0400,0,0,0,3
2026-05-09 00:00:00 -0400,0,0,0,0
2026-05-09 01:00:00 -0400,0,0,0,0
2026-05-09 02:00:00 -0400,0,0,0,0
2026-05-09 03:00:00 -0400,0,0,0,0
2026-05-09 04:00:00 -0400,0,0,0,0
2026-05-09 05:00:00 -0400,0,0,0,0
2026-05-09 06:00:00 -0400,0,0,0,0
2026-05-09 07:00:00 -0400,0,0,1,0
2026-05-09 08:00:00 -0400,1,0,3,1
2026-05-09 09:00:00 -0400,1,0,0,0
2026-05-09 10:00:00 -0400,0,0,2,0
2026-05-09 11:00:00 -0400,2,2,2,1
2026-05-09 12:00:00 -0400,5,0,4,2
2026-05-09 13:00:00 -0400,3,0,0,1
2026-05-09 14:00:00 -0400,1,0,0,5
2026-05-09 15:00:00 -0400,2,0,0,1
2026-05-09 16:00:00 -0400,3,3,0,0
2026-05-09 17:00:00 -0400,0,0,0,1
2026-05-09 18:00:00 -0400,0,1,0,1
2026-05-09 19:00:00 -0400,0,0,3,0
2026-05-09 20:00:00 -0400,0,0,0,1
2026-05-09 21:00:00 -0400,0,0,0,0
2026-05-09 22:00:00 -0400,0,1,0,0
2026-05-09 23:00:00 -0400,0,0,0,0
2026-05-10 00:00:00 -0400,0,0,0,0
2026-05-10 01:00:00 -0400,0,0,0,0
2026-05-10 02:00:00 -0400,0,0,0,0
2026-05-10 03:00:00 -0400,0,0,0,0
2026-05-10 04:00:00 -0400,0,0,0,0
2026-05-10 05:00:00 -0400,0,1,0,0
2026-05-10 06:00:00 -0400,0,0,0,0
2026-05-10 07:00:00 -0400,1,0,0,0
2026-05-10 08:00:00 -0400,0,0,0,0
2026-05-10 09:00:00 -0400,1,2,0,1
2026-05-10 10:00:00 -0400,3,0,0,3
2026-05-10 11:00:00 -0400,3,1,3,2
2026-05-10 12:00:00 -0400,0,1,2,2
2026-05-10 13:00:00 -0400,2,4,3,4
2026-05-10 14:00:00 -0400,2,3,2,0
2026-05-10 15:00:00 -0400,1,1,3,3
2026-05-10 16:00:00 -0400,1,3,3,0
2026-05-10 17:00:00 -0400,0,1,3,2
2026-05-10 18:00:00 -0400,0,0,1,1
2026-05-10 19:00:00 -0400,1,0,2,0
2026-05-10 20:00:00 -0400,0,0,0,0
2026-05-10 21:00:00 -0400,0,0,0,0
2026-05-10 22:00:00 -0400,0,0,1,0
2026-05-10 23:00:00 -0400,0,0,0,0
2026-05-11 00:00:00 -0400,0,0,0,0
2026-05-11 01:00:00 -0400,0,0,0,0
2026-05-11 02:00:00 -0400,0,0,0,0
2026-05-11 03:00:00 -0400,0,0,0,0
2026-05-11 04:00:00 -0400,0,0,0,0
2026-05-11 05:00:00 -0400,0,0,0,0
2026-05-11 06:00:00 -0400,0,1,0,0
2026-05-11 07:00:00 -0400,1,0,0,0
2026-05-11 08:00:00 -0400,0,0,1,0
2026-05-11 09:00:00 -0400,0,0,0,0
2026-05-11 10:00:00 -0400,1,0,0,0
2026-05-11 11:00:00 -0400,0,0,0,0
2026-05-11 12:00:00 -0400,0,0,0,0
2026-05-11 13:00:00 -0400,1,0,0,0
2026-05-11 14:00:00 -0400,1,0,0,0
2026-05-11 15:00:00 -0400,0,1,1,2
2026-05-11 16:00:00 -0400,0,0,1,0
2026-05-11 17:00:00 -0400,0,0,0,0
2026-05-11 18:00:00 -0400,0,0,0,0
2026-05-11 19:00:00 -0400,1,1,1,0
2026-05-11 20:00:00 -0400,0,0,0,0
2026-05-11 21:00:00 -0400,0,0,0,0
2026-05-11 22:00:00 -0400,0,0,0,0
2026-05-11 23:00:00 -0400,0,0,0,0
Lights
Entry,n/a,"",n/a,""
Direction,Eastbound,"",Westbound,""
Start Time,Lane 1,Lane 2,Lane 1,Lane 2
2026-05-05 00:00:00 -0400,26,5,25,10
2026-05-05 01:00:00 -0400,14,4,12,4
2026-05-05 02:00:00 -0400,10,4,23,5
2026-05-05 03:00:00 -0400,12,5,21,6
2026-05-05 04:00:00 -0400,33,4,44,12
2026-05-05 05:00:00 -0400,124,35,114,43
2026-05-05 06:00:00 -0400,317,132,232,83
2026-05-05 07:00:00 -0400,415,243,292,125
2026-05-05 08:00:00 -0400,404,171,296,124
2026-05-05 09:00:00 -0400,307,95,256,59
2026-05-05 10:00:00 -0400,305,71,255,60
2026-05-05 11:00:00 -0400,321,82,248,71
2026-05-05 12:00:00 -0400,298,84,281,77
2026-05-05 13:00:00 -0400,279,114,270,116
2026-05-05 14:00:00 -0400,344,142,343,130
2026-05-05 15:00:00 -0400,374,153,427,234
2026-05-05 16:00:00 -0400,385,160,455,233
2026-05-05 17:00:00 -0400,348,162,410,217
2026-05-05 18:00:00 -0400,283,98,293,115
2026-05-05 19:00:00 -0400,217,80,221,66
2026-05-05 20:00:00 -0400,187,61,177,52
2026-05-05 21:00:00 -0400,175,13,126,32
2026-05-05 22:00:00 -0400,74,30,90,29
2026-05-05 23:00:00 -0400,52,22,54,24
2026-05-06 00:00:00 -0400,31,4,41,15
2026-05-06 01:00:00 -0400,16,0,24,4
2026-05-06 02:00:00 -0400,16,4,14,2
2026-05-06 03:00:00 -0400,22,7,21,10
2026-05-06 04:00:00 -0400,32,14,40,21
2026-05-06 05:00:00 -0400,123,34,111,44
2026-05-06 06:00:00 -0400,304,147,230,94
2026-05-06 07:00:00 -0400,419,230,259,129
2026-05-06 08:00:00 -0400,368,179,274,129
2026-05-06 09:00:00 -0400,309,100,252,85
2026-05-06 10:00:00 -0400,273,104,239,103
2026-05-06 11:00:00 -0400,293,82,241,100
2026-05-06 12:00:00 -0400,296,88,260,106
2026-05-06 13:00:00 -0400,301,106,286,116
2026-05-06 14:00:00 -0400,338,139,340,153
2026-05-06 15:00:00 -0400,374,170,388,202
2026-05-06 16:00:00 -0400,343,154,468,258
2026-05-06 17:00:00 -0400,383,155,414,193
2026-05-06 18:00:00 -0400,319,119,269,119
2026-05-06 19:00:00 -0400,203,67,205,76
2026-05-06 20:00:00 -0400,188,62,225,60
2026-05-06 21:00:00 -0400,139,29,122,29
2026-05-06 22:00:00 -0400,102,30,86,30
2026-05-06 23:00:00 -0400,64,9,49,17
2026-05-07 00:00:00 -0400,22,4,31,11
2026-05-07 01:00:00 -0400,11,5,21,9
2026-05-07 02:00:00 -0400,9,5,17,4
2026-05-07 03:00:00 -0400,19,11,17,7
2026-05-07 04:00:00 -0400,36,7,53,11
2026-05-07 05:00:00 -0400,121,32,139,44
2026-05-07 06:00:00 -0400,323,136,231,91
2026-05-07 07:00:00 -0400,442,231,265,124
2026-05-07 08:00:00 -0400,378,155,277,111
2026-05-07 09:00:00 -0400,312,124,220,81
2026-05-07 10:00:00 -0400,284,97,229,84
2026-05-07 11:00:00 -0400,280,111,264,83
2026-05-07 12:00:00 -0400,291,72,275,88
2026-05-07 13:00:00 -0400,288,101,316,112
2026-05-07 14:00:00 -0400,355,144,339,138
2026-05-07 15:00:00 -0400,357,180,425,216
2026-05-07 16:00:00 -0400,411,165,455,208
2026-05-07 17:00:00 -0400,387,203,462,213
2026-05-07 18:00:00 -0400,293,108,303,123
2026-05-07 19:00:00 -0400,238,87,209,59
2026-05-07 20:00:00 -0400,188,60,219,57
2026-05-07 21:00:00 -0400,182,42,145,48
2026-05-07 22:00:00 -0400,111,41,91,25
2026-05-07 23:00:00 -0400,80,11,46,17
2026-05-08 00:00:00 -0400,29,10,46,12
2026-05-08 01:00:00 -0400,12,7,25,7
2026-05-08 02:00:00 -0400,18,2,18,12
2026-05-08 03:00:00 -0400,25,3,19,11
2026-05-08 04:00:00 -0400,38,11,40,10
2026-05-08 05:00:00 -0400,100,46,105,50
2026-05-08 06:00:00 -0400,286,138,219,91
2026-05-08 07:00:00 -0400,395,226,272,113
2026-05-08 08:00:00 -0400,354,146,212,141
2026-05-08 09:00:00 -0400,306,109,168,164
2026-05-08 10:00:00 -0400,308,114,192,166
2026-05-08 11:00:00 -0400,273,141,294,99
2026-05-08 12:00:00 -0400,304,138,291,126
2026-05-08 13:00:00 -0400,312,136,335,133
2026-05-08 14:00:00 -0400,526,178,350,143
2026-05-08 15:00:00 -0400,420,201,435,211
2026-05-08 16:00:00 -0400,537,206,440,235
2026-05-08 17:00:00 -0400,387,210,413,160
2026-05-08 18:00:00 -0400,405,204,302,110
2026-05-08 19:00:00 -0400,291,119,229,76
2026-05-08 20:00:00 -0400,233,72,223,56
2026-05-08 21:00:00 -0400,172,44,148,49
2026-05-08 22:00:00 -0400,139,32,159,32
2026-05-08 23:00:00 -0400,88,32,125,29
2026-05-09 00:00:00 -0400,66,20,63,18
2026-05-09 01:00:00 -0400,29,10,49,12
2026-05-09 02:00:00 -0400,19,1,32,14
2026-05-09 03:00:00 -0400,25,4,19,8
2026-05-09 04:00:00 -0400,20,7,35,14
2026-05-09 05:00:00 -0400,43,15,43,18
2026-05-09 06:00:00 -0400,112,28,100,37
2026-05-09 07:00:00 -0400,194,59,164,43
2026-05-09 08:00:00 -0400,215,70,216,72
2026-05-09 09:00:00 -0400,289,104,251,83
2026-05-09 10:00:00 -0400,321,106,287,107
2026-05-09 11:00:00 -0400,387,130,350,101
2026-05-09 12:00:00 -0400,371,155,352,127
2026-05-09 13:00:00 -0400,359,160,336,110
2026-05-09 14:00:00 -0400,380,155,342,137
2026-05-09 15:00:00 -0400,375,137,322,110
2026-05-09 16:00:00 -0400,358,137,371,130
2026-05-09 17:00:00 -0400,336,141,313,113
2026-05-09 18:00:00 -0400,279,117,264,87
2026-05-09 19:00:00 -0400,232,92,227,82
2026-05-09 20:00:00 -0400,182,71,200,58
2026-05-09 21:00:00 -0400,180,35,189,60
2026-05-09 22:00:00 -0400,123,45,149,53
2026-05-09 23:00:00 -0400,91,29,113,34
2026-05-10 00:00:00 -0400,58,6,80,20
2026-05-10 01:00:00 -0400,31,9,58,24
2026-05-10 02:00:00 -0400,24,7,38,16
2026-05-10 03:00:00 -0400,15,5,24,9
2026-05-10 04:00:00 -0400,13,10,38,10
2026-05-10 05:00:00 -0400,25,6,36,12
2026-05-10 06:00:00 -0400,63,18,78,20
2026-05-10 07:00:00 -0400,100,22,90,30
2026-05-10 08:00:00 -0400,167,55,190,57
2026-05-10 09:00:00 -0400,213,63,288,110
2026-05-10 10:00:00 -0400,289,99,312,117
2026-05-10 11:00:00 -0400,363,144,375,135
2026-05-10 12:00:00 -0400,411,160,372,141
2026-05-10 13:00:00 -0400,389,157,353,129
2026-05-10 14:00:00 -0400,396,164,374,152
2026-05-10 15:00:00 -0400,369,162,362,132
2026-05-10 16:00:00 -0400,333,89,341,148
2026-05-10 17:00:00 -0400,297,108,336,139
2026-05-10 18:00:00 -0400,248,89,337,131
2026-05-10 19:00:00 -0400,245,81,277,99
2026-05-10 20:00:00 -0400,170,66,195,84
2026-05-10 21:00:00 -0400,140,39,143,37
2026-05-10 22:00:00 -0400,80,33,94,23
2026-05-10 23:00:00 -0400,62,15,65,20
2026-05-11 00:00:00 -0400,22,9,28,12
2026-05-11 01:00:00 -0400,9,5,22,13
2026-05-11 02:00:00 -0400,12,1,20,7
2026-05-11 03:00:00 -0400,19,5,25,6
2026-05-11 04:00:00 -0400,31,9,39,19
2026-05-11 05:00:00 -0400,105,30,117,43
2026-05-11 06:00:00 -0400,261,141,225,109
2026-05-11 07:00:00 -0400,373,212,277,119
2026-05-11 08:00:00 -0400,346,163,259,106
2026-05-11 09:00:00 -0400,256,93,242,88
2026-05-11 10:00:00 -0400,252,87,240,82
2026-05-11 11:00:00 -0400,257,87,282,78
2026-05-11 12:00:00 -0400,258,90,272,92
2026-05-11 13:00:00 -0400,262,88,285,85
2026-05-11 14:00:00 -0400,298,111,289,100
2026-05-11 15:00:00 -0400,347,151,367,180
2026-05-11 16:00:00 -0400,335,142,444,177
2026-05-11 17:00:00 -0400,502,160,392,174
2026-05-11 18:00:00 -0400,266,99,310,99
2026-05-11 19:00:00 -0400,226,79,208,55
2026-05-11 20:00:00 -0400,169,49,171,56
2026-05-11 21:00:00 -0400,123,16,100,34
2026-05-11 22:00:00 -0400,93,21,100,24
2026-05-11 23:00:00 -0400,49,14,44,11
Single-Unit Trucks
Entry,n/a,"",n/a,""
Direction,Eastbound,"",Westbound,""
Start Time,Lane 1,Lane 2,Lane 1,Lane 2
2026-05-05 00:00:00 -0400,0,0,0,0
2026-05-05 01:00:00 -0400,2,0,2,0
2026-05-05 02:00:00 -0400,0,1,1,1
2026-05-05 03:00:00 -0400,1,0,0,0
2026-05-05 04:00:00 -0400,2,0,2,1
2026-05-05 05:00:00 -0400,1,1,5,1
2026-05-05 06:00:00 -0400,10,2,5,1
2026-05-05 07:00:00 -0400,26,11,16,1
2026-05-05 08:00:00 -0400,13,3,15,2
2026-05-05 09:00:00 -0400,19,4,10,2
2026-05-05 10:00:00 -0400,14,2,17,2
2026-05-05 11:00:00 -0400,10,0,7,2
2026-05-05 12:00:00 -0400,14,2,10,1
2026-05-05 13:00:00 -0400,12,3,17,2
2026-05-05 14:00:00 -0400,15,1,18,1
2026-05-05 15:00:00 -0400,7,4,7,1
2026-05-05 16:00:00 -0400,2,1,7,0
2026-05-05 17:00:00 -0400,7,0,4,1
2026-05-05 18:00:00 -0400,2,0,4,0
2026-05-05 19:00:00 -0400,3,0,1,2
2026-05-05 20:00:00 -0400,4,0,2,0
2026-05-05 21:00:00 -0400,1,0,0,0
2026-05-05 22:00:00 -0400,0,0,0,0
2026-05-05 23:00:00 -0400,0,0,4,1
2026-05-06 00:00:00 -0400,0,0,0,0
2026-05-06 01:00:00 -0400,1,0,0,0
2026-05-06 02:00:00 -0400,0,0,2,0
2026-05-06 03:00:00 -0400,2,0,0,1
2026-05-06 04:00:00 -0400,1,0,3,0
2026-05-06 05:00:00 -0400,3,0,3,2
2026-05-06 06:00:00 -0400,4,0,6,2
2026-05-06 07:00:00 -0400,27,7,14,4
2026-05-06 08:00:00 -0400,33,3,21,4
2026-05-06 09:00:00 -0400,20,0,14,0
2026-05-06 10:00:00 -0400,18,3,17,3
2026-05-06 11:00:00 -0400,22,6,17,3
2026-05-06 12:00:00 -0400,16,1,23,3
2026-05-06 13:00:00 -0400,15,8,13,7
2026-05-06 14:00:00 -0400,12,0,22,4
2026-05-06 15:00:00 -0400,12,2,16,1
2026-05-06 16:00:00 -0400,17,1,9,4
2026-05-06 17:00:00 -0400,7,1,7,1
2026-05-06 18:00:00 -0400,2,2,7,2
2026-05-06 19:00:00 -0400,2,0,2,0
2026-05-06 20:00:00 -0400,1,0,0,0
2026-05-06 21:00:00 -0400,1,0,0,1
2026-05-06 22:00:00 -0400,0,0,0,0
2026-05-06 23:00:00 -0400,1,0,0,0
2026-05-07 00:00:00 -0400,1,0,0,0
2026-05-07 01:00:00 -0400,2,0,0,1
2026-05-07 02:00:00 -0400,2,1,3,0
2026-05-07 03:00:00 -0400,2,0,3,3
2026-05-07 04:00:00 -0400,1,0,1,0
2026-05-07 05:00:00 -0400,5,1,5,3
2026-05-07 06:00:00 -0400,7,4,7,0
2026-05-07 07:00:00 -0400,14,2,5,2
2026-05-07 08:00:00 -0400,6,1,9,2
2026-05-07 09:00:00 -0400,12,5,12,1
2026-05-07 10:00:00 -0400,14,3,15,1
2026-05-07 11:00:00 -0400,12,3,18,0
2026-05-07 12:00:00 -0400,15,3,10,2
2026-05-07 13:00:00 -0400,10,5,6,3
2026-05-07 14:00:00 -0400,10,2,11,3
2026-05-07 15:00:00 -0400,13,0,10,3
2026-05-07 16:00:00 -0400,5,4,8,3
2026-05-07 17:00:00 -0400,8,0,3,0
2026-05-07 18:00:00 -0400,4,0,4,1
2026-05-07 19:00:00 -0400,1,2,1,0
2026-05-07 20:00:00 -0400,4,2,5,1
2026-05-07 21:00:00 -0400,1,1,1,0
2026-05-07 22:00:00 -0400,3,2,0,2
2026-05-07 23:00:00 -0400,2,1,0,0
2026-05-08 00:00:00 -0400,0,1,0,2
2026-05-08 01:00:00 -0400,1,0,1,0
2026-05-08 02:00:00 -0400,0,0,1,0
2026-05-08 03:00:00 -0400,3,0,1,0
2026-05-08 04:00:00 -0400,1,0,4,1
2026-05-08 05:00:00 -0400,8,0,5,1
2026-05-08 06:00:00 -0400,9,2,8,0
2026-05-08 07:00:00 -0400,29,4,12,1
2026-05-08 08:00:00 -0400,23,5,16,4
2026-05-08 09:00:00 -0400,15,3,11,7
2026-05-08 10:00:00 -0400,24,3,17,9
2026-05-08 11:00:00 -0400,22,7,10,0
2026-05-08 12:00:00 -0400,26,6,19,3
2026-05-08 13:00:00 -0400,20,5,21,2
2026-05-08 14:00:00 -0400,14,3,14,3
2026-05-08 15:00:00 -0400,7,3,14,4
2026-05-08 16:00:00 -0400,6,1,15,1
2026-05-08 17:00:00 -0400,7,2,6,2
2026-05-08 18:00:00 -0400,3,2,5,1
2026-05-08 19:00:00 -0400,0,1,1,0
2026-05-08 20:00:00 -0400,4,0,0,2
2026-05-08 21:00:00 -0400,2,0,0,1
2026-05-08 22:00:00 -0400,0,1,0,1
2026-05-08 23:00:00 -0400,0,1,2,0
2026-05-09 00:00:00 -0400,1,0,1,0
2026-05-09 01:00:00 -0400,2,2,0,0
2026-05-09 02:00:00 -0400,0,0,1,0
2026-05-09 03:00:00 -0400,2,0,0,0
2026-05-09 04:00:00 -0400,0,0,0,0
2026-05-09 05:00:00 -0400,5,0,4,0
2026-05-09 06:00:00 -0400,7,0,3,0
2026-05-09 07:00:00 -0400,7,3,2,3
2026-05-09 08:00:00 -0400,2,1,7,3
2026-05-09 09:00:00 -0400,6,0,6,0
2026-05-09 10:00:00 -0400,8,0,2,1
2026-05-09 11:00:00 -0400,3,1,4,0
2026-05-09 12:00:00 -0400,4,0,4,1
2026-05-09 13:00:00 -0400,1,1,3,0
2026-05-09 14:00:00 -0400,5,0,6,4
2026-05-09 15:00:00 -0400,5,0,1,0
2026-05-09 16:00:00 -0400,0,2,3,2
2026-05-09 17:00:00 -0400,0,1,1,1
2026-05-09 18:00:00 -0400,2,1,2,1
2026-05-09 19:00:00 -0400,1,0,0,0
2026-05-09 20:00:00 -0400,1,0,0,1
2026-05-09 21:00:00 -0400,0,1,1,0
2026-05-09 22:00:00 -0400,0,0,0,0
2026-05-09 23:00:00 -0400,0,0,1,1
2026-05-10 00:00:00 -0400,1,0,0,0
2026-05-10 01:00:00 -0400,1,0,0,0
2026-05-10 02:00:00 -0400,0,0,0,0
2026-05-10 03:00:00 -0400,0,0,0,0
2026-05-10 04:00:00 -0400,1,0,0,1
2026-05-10 05:00:00 -0400,1,0,0,0
2026-05-10 06:00:00 -0400,0,0,1,1
2026-05-10 07:00:00 -0400,2,0,0,1
2026-05-10 08:00:00 -0400,1,0,0,0
2026-05-10 09:00:00 -0400,0,2,0,0
2026-05-10 10:00:00 -0400,1,2,0,2
2026-05-10 11:00:00 -0400,3,0,1,0
2026-05-10 12:00:00 -0400,2,2,1,3
2026-05-10 13:00:00 -0400,0,1,1,2
2026-05-10 14:00:00 -0400,1,2,2,0
2026-05-10 15:00:00 -0400,1,0,0,1
2026-05-10 16:00:00 -0400,1,0,1,1
2026-05-10 17:00:00 -0400,0,0,1,0
2026-05-10 18:00:00 -0400,1,2,0,1
2026-05-10 19:00:00 -0400,2,1,1,0
2026-05-10 20:00:00 -0400,2,1,0,0
2026-05-10 21:00:00 -0400,2,0,2,0
2026-05-10 22:00:00 -0400,3,0,0,0
2026-05-10 23:00:00 -0400,0,0,1,0
2026-05-11 00:00:00 -0400,0,0,0,0
2026-05-11 01:00:00 -0400,1,0,1,0
2026-05-11 02:00:00 -0400,1,0,2,1
2026-05-11 03:00:00 -0400,1,0,0,0
2026-05-11 04:00:00 -0400,0,0,2,0
2026-05-11 05:00:00 -0400,3,0,6,2
2026-05-11 06:00:00 -0400,12,2,6,0
2026-05-11 07:00:00 -0400,38,8,15,2
2026-05-11 08:00:00 -0400,17,5,12,1
2026-05-11 09:00:00 -0400,23,2,6,2
2026-05-11 10:00:00 -0400,21,2,16,4
2026-05-11 11:00:00 -0400,17,3,12,1
2026-05-11 12:00:00 -0400,13,4,13,4
2026-05-11 13:00:00 -0400,15,1,6,4
2026-05-11 14:00:00 -0400,18,5,16,2
2026-05-11 15:00:00 -0400,8,1,7,2
2026-05-11 16:00:00 -0400,18,3,7,2
2026-05-11 17:00:00 -0400,2,2,4,0
2026-05-11 18:00:00 -0400,10,1,4,0
2026-05-11 19:00:00 -0400,2,1,1,0
2026-05-11 20:00:00 -0400,0,0,1,0
2026-05-11 21:00:00 -0400,2,0,1,0
2026-05-11 22:00:00 -0400,1,0,0,0
2026-05-11 23:00:00 -0400,0,1,2,0
Articulated Trucks
Entry,n/a,"",n/a,""
Direction,Eastbound,"",Westbound,""
Start Time,Lane 1,Lane 2,Lane 1,Lane 2
2026-05-05 00:00:00 -0400,0,0,0,0
2026-05-05 01:00:00 -0400,1,0,0,0
2026-05-05 02:00:00 -0400,0,0,2,0
2026-05-05 03:00:00 -0400,0,0,1,0
2026-05-05 04:00:00 -0400,0,0,2,1
2026-05-05 05:00:00 -0400,2,1,1,0
2026-05-05 06:00:00 -0400,2,3,2,0
2026-05-05 07:00:00 -0400,5,1,6,2
2026-05-05 08:00:00 -0400,2,0,6,1
2026-05-05 09:00:00 -0400,7,0,3,1
2026-05-05 10:00:00 -0400,3,1,2,0
2026-05-05 11:00:00 -0400,10,0,3,0
2026-05-05 12:00:00 -0400,5,0,3,2
2026-05-05 13:00:00 -0400,5,0,6,0
2026-05-05 14:00:00 -0400,9,0,3,0
2026-05-05 15:00:00 -0400,2,1,2,0
2026-05-05 16:00:00 -0400,1,1,1,0
2026-05-05 17:00:00 -0400,2,0,2,0
2026-05-05 18:00:00 -0400,0,0,1,0
2026-05-05 19:00:00 -0400,3,0,0,0
2026-05-05 20:00:00 -0400,2,0,0,0
2026-05-05 21:00:00 -0400,0,0,0,0
2026-05-05 22:00:00 -0400,0,0,0,0
2026-05-05 23:00:00 -0400,0,0,0,0
2026-05-06 00:00:00 -0400,0,0,0,0
2026-05-06 01:00:00 -0400,0,0,0,0
2026-05-06 02:00:00 -0400,1,0,0,1
2026-05-06 03:00:00 -0400,0,0,1,0
2026-05-06 04:00:00 -0400,0,0,2,0
2026-05-06 05:00:00 -0400,1,0,0,0
2026-05-06 06:00:00 -0400,0,0,0,0
2026-05-06 07:00:00 -0400,5,3,3,0
2026-05-06 08:00:00 -0400,8,1,4,0
2026-05-06 09:00:00 -0400,5,2,5,1
2026-05-06 10:00:00 -0400,1,0,6,0
2026-05-06 11:00:00 -0400,5,2,3,1
2026-05-06 12:00:00 -0400,5,0,2,0
2026-05-06 13:00:00 -0400,3,0,3,0
2026-05-06 14:00:00 -0400,6,1,5,0
2026-05-06 15:00:00 -0400,4,0,3,0
2026-05-06 16:00:00 -0400,0,0,2,0
2026-05-06 17:00:00 -0400,2,0,1,0
2026-05-06 18:00:00 -0400,2,0,0,0
2026-05-06 19:00:00 -0400,0,0,4,0
2026-05-06 20:00:00 -0400,0,0,0,0
2026-05-06 21:00:00 -0400,2,0,0,0
2026-05-06 22:00:00 -0400,0,0,0,0
2026-05-06 23:00:00 -0400,0,0,1,0
2026-05-07 00:00:00 -0400,0,0,0,0
2026-05-07 01:00:00 -0400,0,0,0,0
2026-05-07 02:00:00 -0400,1,0,3,0
2026-05-07 03:00:00 -0400,0,0,1,1
2026-05-07 04:00:00 -0400,0,0,2,0
2026-05-07 05:00:00 -0400,1,0,0,0
2026-05-07 06:00:00 -0400,3,1,1,0
2026-05-07 07:00:00 -0400,3,0,6,1
2026-05-07 08:00:00 -0400,5,1,2,0
2026-05-07 09:00:00 -0400,5,1,4,0
2026-05-07 10:00:00 -0400,3,1,5,0
2026-05-07 11:00:00 -0400,3,0,3,0
2026-05-07 12:00:00 -0400,4,0,1,0
2026-05-07 13:00:00 -0400,3,0,4,0
2026-05-07 14:00:00 -0400,2,0,6,1
2026-05-07 15:00:00 -0400,1,2,5,0
2026-05-07 16:00:00 -0400,2,1,5,0
2026-05-07 17:00:00 -0400,2,0,2,0
2026-05-07 18:00:00 -0400,1,0,0,0
2026-05-07 19:00:00 -0400,2,0,0,0
2026-05-07 20:00:00 -0400,0,0,0,0
2026-05-07 21:00:00 -0400,1,0,0,0
2026-05-07 22:00:00 -0400,0,0,0,0
2026-05-07 23:00:00 -0400,0,1,0,0
2026-05-08 00:00:00 -0400,1,0,0,0
2026-05-08 01:00:00 -0400,0,0,0,0
2026-05-08 02:00:00 -0400,0,0,2,0
2026-05-08 03:00:00 -0400,0,0,1,1
2026-05-08 04:00:00 -0400,0,1,2,0
2026-05-08 05:00:00 -0400,1,2,1,0
2026-05-08 06:00:00 -0400,3,0,1,0
2026-05-08 07:00:00 -0400,2,0,12,0
2026-05-08 08:00:00 -0400,9,1,5,1
2026-05-08 09:00:00 -0400,6,0,0,2
2026-05-08 10:00:00 -0400,1,1,4,0
2026-05-08 11:00:00 -0400,7,2,5,0
2026-05-08 12:00:00 -0400,6,1,8,0
2026-05-08 13:00:00 -0400,10,0,3,1
2026-05-08 14:00:00 -0400,10,2,2,0
2026-05-08 15:00:00 -0400,3,1,5,1
2026-05-08 16:00:00 -0400,4,1,3,0
2026-05-08 17:00:00 -0400,1,0,0,0
2026-05-08 18:00:00 -0400,2,0,1,0
2026-05-08 19:00:00 -0400,1,0,1,0
2026-05-08 20:00:00 -0400,0,0,2,0
2026-05-08 21:00:00 -0400,1,0,0,0
2026-05-08 22:00:00 -0400,0,0,0,0
2026-05-08 23:00:00 -0400,0,0,0,0
2026-05-09 00:00:00 -0400,0,0,0,0
2026-05-09 01:00:00 -0400,0,0,0,0
2026-05-09 02:00:00 -0400,0,0,1,0
2026-05-09 03:00:00 -0400,0,0,1,0
2026-05-09 04:00:00 -0400,0,0,0,0
2026-05-09 05:00:00 -0400,0,0,0,0
2026-05-09 06:00:00 -0400,0,0,0,0
2026-05-09 07:00:00 -0400,3,1,2,0
2026-05-09 08:00:00 -0400,4,0,0,0
2026-05-09 09:00:00 -0400,1,0,1,1
2026-05-09 10:00:00 -0400,1,1,1,0
2026-05-09 11:00:00 -0400,0,0,1,0
2026-05-09 12:00:00 -0400,0,0,1,0
2026-05-09 13:00:00 -0400,2,0,0,0
2026-05-09 14:00:00 -0400,0,0,0,0
2026-05-09 15:00:00 -0400,0,0,0,0
2026-05-09 16:00:00 -0400,0,0,0,0
2026-05-09 17:00:00 -0400,0,0,2,0
2026-05-09 18:00:00 -0400,0,0,0,0
2026-05-09 19:00:00 -0400,0,0,1,0
2026-05-09 20:00:00 -0400,0,0,0,0
2026-05-09 21:00:00 -0400,2,0,1,0
2026-05-09 22:00:00 -0400,0,0,0,0
2026-05-09 23:00:00 -0400,0,0,0,0
2026-05-10 00:00:00 -0400,1,0,1,0
2026-05-10 01:00:00 -0400,0,0,0,0
2026-05-10 02:00:00 -0400,0,0,0,0
2026-05-10 03:00:00 -0400,2,0,0,0
2026-05-10 04:00:00 -0400,0,1,0,0
2026-05-10 05:00:00 -0400,0,0,0,0
2026-05-10 06:00:00 -0400,0,0,0,0
2026-05-10 07:00:00 -0400,1,0,1,0
2026-05-10 08:00:00 -0400,0,0,0,0
2026-05-10 09:00:00 -0400,0,0,0,0
2026-05-10 10:00:00 -0400,1,2,1,0
2026-05-10 11:00:00 -0400,0,1,0,0
2026-05-10 12:00:00 -0400,0,0,1,0
2026-05-10 13:00:00 -0400,0,0,0,0
2026-05-10 14:00:00 -0400,0,0,0,0
2026-05-10 15:00:00 -0400,0,0,0,0
2026-05-10 16:00:00 -0400,0,0,0,1
2026-05-10 17:00:00 -0400,1,0,2,0
2026-05-10 18:00:00 -0400,1,0,0,0
2026-05-10 19:00:00 -0400,0,0,0,0
2026-05-10 20:00:00 -0400,0,0,0,0
2026-05-10 21:00:00 -0400,0,1,1,0
2026-05-10 22:00:00 -0400,0,0,0,0
2026-05-10 23:00:00 -0400,0,0,0,0
2026-05-11 00:00:00 -0400,0,0,2,0
2026-05-11 01:00:00 -0400,0,1,0,0
2026-05-11 02:00:00 -0400,1,0,1,0
2026-05-11 03:00:00 -0400,0,0,1,1
2026-05-11 04:00:00 -0400,1,0,1,0
2026-05-11 05:00:00 -0400,2,0,0,0
2026-05-11 06:00:00 -0400,4,1,1,1
2026-05-11 07:00:00 -0400,0,0,6,0
2026-05-11 08:00:00 -0400,3,1,9,0
2026-05-11 09:00:00 -0400,1,0,5,1
2026-05-11 10:00:00 -0400,6,2,4,0
2026-05-11 11:00:00 -0400,3,0,2,1
2026-05-11 12:00:00 -0400,2,2,6,0
2026-05-11 13:00:00 -0400,5,1,2,0
2026-05-11 14:00:00 -0400,1,0,4,0
2026-05-11 15:00:00 -0400,2,0,4,0
2026-05-11 16:00:00 -0400,0,0,1,1
2026-05-11 17:00:00 -0400,5,0,0,0
2026-05-11 18:00:00 -0400,0,0,0,1
2026-05-11 19:00:00 -0400,1,0,1,0
2026-05-11 20:00:00 -0400,0,0,1,0
2026-05-11 21:00:00 -0400,1,0,0,0
2026-05-11 22:00:00 -0400,0,0,0,0
2026-05-11 23:00:00 -0400,0,0,0,0
Buses
Entry,n/a,"",n/a,""
Direction,Eastbound,"",Westbound,""
Start Time,Lane 1,Lane 2,Lane 1,Lane 2
2026-05-05 00:00:00 -0400,1,0,2,0
2026-05-05 01:00:00 -0400,0,0,0,0
2026-05-05 02:00:00 -0400,1,0,1,0
2026-05-05 03:00:00 -0400,1,0,2,0
2026-05-05 04:00:00 -0400,1,0,1,0
2026-05-05 05:00:00 -0400,3,0,2,0
2026-05-05 06:00:00 -0400,2,0,6,0
2026-05-05 07:00:00 -0400,6,0,6,0
2026-05-05 08:00:00 -0400,9,0,6,1
2026-05-05 09:00:00 -0400,6,0,5,0
2026-05-05 10:00:00 -0400,1,0,3,1
2026-05-05 11:00:00 -0400,1,1,3,0
2026-05-05 12:00:00 -0400,5,0,4,0
2026-05-05 13:00:00 -0400,3,1,4,0
2026-05-05 14:00:00 -0400,6,0,4,2
2026-05-05 15:00:00 -0400,8,5,6,1
2026-05-05 16:00:00 -0400,2,0,3,1
2026-05-05 17:00:00 -0400,6,0,5,0
2026-05-05 18:00:00 -0400,4,0,1,0
2026-05-05 19:00:00 -0400,2,0,2,0
2026-05-05 20:00:00 -0400,1,0,1,0
2026-05-05 21:00:00 -0400,1,0,1,0
2026-05-05 22:00:00 -0400,1,0,0,0
2026-05-05 23:00:00 -0400,1,0,1,0
2026-05-06 00:00:00 -0400,1,0,1,0
2026-05-06 01:00:00 -0400,1,0,0,0
2026-05-06 02:00:00 -0400,1,0,1,0
2026-05-06 03:00:00 -0400,1,0,1,0
2026-05-06 04:00:00 -0400,1,0,1,0
2026-05-06 05:00:00 -0400,2,0,2,0
2026-05-06 06:00:00 -0400,1,0,8,1
2026-05-06 07:00:00 -0400,7,0,5,0
2026-05-06 08:00:00 -0400,16,4,11,1
2026-05-06 09:00:00 -0400,11,1,4,1
2026-05-06 10:00:00 -0400,3,0,2,0
2026-05-06 11:00:00 -0400,2,2,6,0
2026-05-06 12:00:00 -0400,4,0,5,2
2026-05-06 13:00:00 -0400,10,2,9,0
2026-05-06 14:00:00 -0400,5,1,6,3
2026-05-06 15:00:00 -0400,8,5,6,0
2026-05-06 16:00:00 -0400,1,0,2,1
2026-05-06 17:00:00 -0400,5,0,6,0
2026-05-06 18:00:00 -0400,5,0,3,0
2026-05-06 19:00:00 -0400,2,0,1,0
2026-05-06 20:00:00 -0400,3,0,1,0
2026-05-06 21:00:00 -0400,1,0,1,0
2026-05-06 22:00:00 -0400,1,0,1,0
2026-05-06 23:00:00 -0400,0,0,1,0
2026-05-07 00:00:00 -0400,1,0,1,0
2026-05-07 01:00:00 -0400,1,0,1,0
2026-05-07 02:00:00 -0400,1,0,0,0
2026-05-07 03:00:00 -0400,0,0,0,0
2026-05-07 04:00:00 -0400,1,0,0,0
2026-05-07 05:00:00 -0400,2,1,2,0
2026-05-07 06:00:00 -0400,6,1,6,0
2026-05-07 07:00:00 -0400,5,1,9,0
2026-05-07 08:00:00 -0400,7,2,4,2
2026-05-07 09:00:00 -0400,5,2,5,0
2026-05-07 10:00:00 -0400,5,0,3,1
2026-05-07 11:00:00 -0400,9,0,1,1
2026-05-07 12:00:00 -0400,5,0,4,0
2026-05-07 13:00:00 -0400,4,1,12,2
2026-05-07 14:00:00 -0400,2,1,6,0
2026-05-07 15:00:00 -0400,8,2,5,1
2026-05-07 16:00:00 -0400,1,1,6,0
2026-05-07 17:00:00 -0400,3,0,5,1
2026-05-07 18:00:00 -0400,4,1,2,0
2026-05-07 19:00:00 -0400,2,0,4,0
2026-05-07 20:00:00 -0400,1,0,2,0
2026-05-07 21:00:00 -0400,1,0,1,0
2026-05-07 22:00:00 -0400,1,0,1,0
2026-05-07 23:00:00 -0400,1,0,1,0
2026-05-08 00:00:00 -0400,1,0,1,0
2026-05-08 01:00:00 -0400,1,0,1,0
2026-05-08 02:00:00 -0400,1,0,2,0
2026-05-08 03:00:00 -0400,1,0,1,0
2026-05-08 04:00:00 -0400,1,0,1,0
2026-05-08 05:00:00 -0400,1,2,0,1
2026-05-08 06:00:00 -0400,3,0,6,0
2026-05-08 07:00:00 -0400,6,0,4,1
2026-05-08 08:00:00 -0400,11,2,6,1
2026-05-08 09:00:00 -0400,3,0,3,1
2026-05-08 10:00:00 -0400,2,0,2,1
2026-05-08 11:00:00 -0400,2,1,3,0
2026-05-08 12:00:00 -0400,3,0,4,0
2026-05-08 13:00:00 -0400,3,1,2,1
2026-05-08 14:00:00 -0400,5,0,6,0
2026-05-08 15:00:00 -0400,11,3,5,1
2026-05-08 16:00:00 -0400,4,0,2,2
2026-05-08 17:00:00 -0400,3,0,6,0
2026-05-08 18:00:00 -0400,3,0,2,0
2026-05-08 19:00:00 -0400,1,0,2,0
2026-05-08 20:00:00 -0400,0,0,1,0
2026-05-08 21:00:00 -0400,1,0,1,0
2026-05-08 22:00:00 -0400,1,0,0,0
2026-05-08 23:00:00 -0400,0,0,3,1
2026-05-09 00:00:00 -0400,1,0,0,0
2026-05-09 01:00:00 -0400,1,0,1,0
2026-05-09 02:00:00 -0400,1,0,1,0
2026-05-09 03:00:00 -0400,0,0,1,0
2026-05-09 04:00:00 -0400,0,0,1,0
2026-05-09 05:00:00 -0400,1,0,0,0
2026-05-09 06:00:00 -0400,2,0,2,0
2026-05-09 07:00:00 -0400,2,1,0,1
2026-05-09 08:00:00 -0400,1,0,2,0
2026-05-09 09:00:00 -0400,1,0,4,0
2026-05-09 10:00:00 -0400,1,0,1,0
2026-05-09 11:00:00 -0400,1,0,3,0
2026-05-09 12:00:00 -0400,3,0,2,0
2026-05-09 13:00:00 -0400,2,0,3,0
2026-05-09 14:00:00 -0400,1,0,4,0
2026-05-09 15:00:00 -0400,1,1,1,0
2026-05-09 16:00:00 -0400,1,0,1,0
2026-05-09 17:00:00 -0400,1,0,1,0
2026-05-09 18:00:00 -0400,1,0,2,0
2026-05-09 19:00:00 -0400,2,0,1,0
2026-05-09 20:00:00 -0400,1,0,1,0
2026-05-09 21:00:00 -0400,0,0,1,0
2026-05-09 22:00:00 -0400,2,0,1,0
2026-05-09 23:00:00 -0400,2,0,1,0
2026-05-10 00:00:00 -0400,2,0,0,0
2026-05-10 01:00:00 -0400,1,0,1,0
2026-05-10 02:00:00 -0400,1,0,1,0
2026-05-10 03:00:00 -0400,0,0,1,0
2026-05-10 04:00:00 -0400,1,0,1,0
2026-05-10 05:00:00 -0400,1,0,1,0
2026-05-10 06:00:00 -0400,3,0,1,0
2026-05-10 07:00:00 -0400,1,1,1,0
2026-05-10 08:00:00 -0400,1,0,3,0
2026-05-10 09:00:00 -0400,1,1,2,0
2026-05-10 10:00:00 -0400,1,0,1,0
2026-05-10 11:00:00 -0400,1,0,1,0
2026-05-10 12:00:00 -0400,2,1,1,1
2026-05-10 13:00:00 -0400,3,0,2,0
2026-05-10 14:00:00 -0400,2,0,1,0
2026-05-10 15:00:00 -0400,1,0,3,0
2026-05-10 16:00:00 -0400,1,0,3,0
2026-05-10 17:00:00 -0400,2,1,1,0
2026-05-10 18:00:00 -0400,2,0,3,0
2026-05-10 19:00:00 -0400,2,0,2,0
2026-05-10 20:00:00 -0400,1,0,0,0
2026-05-10 21:00:00 -0400,1,0,1,0
2026-05-10 22:00:00 -0400,0,0,1,0
2026-05-10 23:00:00 -0400,1,0,0,0
2026-05-11 00:00:00 -0400,1,0,0,0
2026-05-11 01:00:00 -0400,1,0,1,0
2026-05-11 02:00:00 -0400,1,0,0,0
2026-05-11 03:00:00 -0400,1,0,1,0
2026-05-11 04:00:00 -0400,1,0,1,0
2026-05-11 05:00:00 -0400,3,0,2,0
2026-05-11 06:00:00 -0400,2,0,7,0
2026-05-11 07:00:00 -0400,5,0,5,0
2026-05-11 08:00:00 -0400,14,1,5,3
2026-05-11 09:00:00 -0400,2,0,4,0
2026-05-11 10:00:00 -0400,3,0,4,1
2026-05-11 11:00:00 -0400,3,1,3,0
2026-05-11 12:00:00 -0400,5,1,3,0
2026-05-11 13:00:00 -0400,3,0,4,0
2026-05-11 14:00:00 -0400,5,1,7,2
2026-05-11 15:00:00 -0400,7,3,9,0
2026-05-11 16:00:00 -0400,2,2,1,1
2026-05-11 17:00:00 -0400,6,1,6,0
2026-05-11 18:00:00 -0400,4,0,1,0
2026-05-11 19:00:00 -0400,1,0,2,0
2026-05-11 20:00:00 -0400,1,0,1,0
2026-05-11 21:00:00 -0400,1,0,1,0
2026-05-11 22:00:00 -0400,1,0,1,0
2026-05-11 23:00:00 -0400,1,0,0,0
Bicycles on Road
Entry,n/a,"",n/a,""
Direction,Eastbound,"",Westbound,""
Start Time,Lane 1,Lane 2,Lane 1,Lane 2
2026-05-05 00:00:00 -0400,0,0,0,0
2026-05-05 01:00:00 -0400,0,0,0,0
2026-05-05 02:00:00 -0400,0,0,0,0
2026-05-05 03:00:00 -0400,0,0,0,0
2026-05-05 04:00:00 -0400,0,0,0,0
2026-05-05 05:00:00 -0400,0,0,0,0
2026-05-05 06:00:00 -0400,0,0,0,0
2026-05-05 07:00:00 -0400,0,0,0,0
2026-05-05 08:00:00 -0400,0,0,0,0
2026-05-05 09:00:00 -0400,0,0,0,0
2026-05-05 10:00:00 -0400,0,0,0,0
2026-05-05 11:00:00 -0400,0,0,0,0
2026-05-05 12:00:00 -0400,0,0,0,0
2026-05-05 13:00:00 -0400,0,0,0,0
2026-05-05 14:00:00 -0400,0,0,0,0
2026-05-05 15:00:00 -0400,0,0,0,0
2026-05-05 16:00:00 -0400,0,0,0,0
2026-05-05 17:00:00 -0400,0,0,0,0
2026-05-05 18:00:00 -0400,0,0,0,0
2026-05-05 19:00:00 -0400,0,0,0,0
2026-05-05 20:00:00 -0400,0,0,0,0
2026-05-05 21:00:00 -0400,0,0,0,0
2026-05-05 22:00:00 -0400,0,0,0,0
2026-05-05 23:00:00 -0400,0,0,0,0
2026-05-06 00:00:00 -0400,0,0,0,0
2026-05-06 01:00:00 -0400,0,0,0,0
2026-05-06 02:00:00 -0400,0,0,0,0
2026-05-06 03:00:00 -0400,0,0,0,0
2026-05-06 04:00:00 -0400,0,0,0,0
2026-05-06 05:00:00 -0400,0,0,0,0
2026-05-06 06:00:00 -0400,0,0,0,0
2026-05-06 07:00:00 -0400,0,0,0,0
2026-05-06 08:00:00 -0400,0,0,0,0
2026-05-06 09:00:00 -0400,0,0,0,0
2026-05-06 10:00:00 -0400,0,0,0,0
2026-05-06 11:00:00 -0400,0,0,0,0
2026-05-06 12:00:00 -0400,0,0,0,0
2026-05-06 13:00:00 -0400,0,0,0,0
2026-05-06 14:00:00 -0400,0,0,0,0
2026-05-06 15:00:00 -0400,0,0,0,0
2026-05-06 16:00:00 -0400,0,0,0,0
2026-05-06 17:00:00 -0400,0,0,0,0
2026-05-06 18:00:00 -0400,0,0,0,0
2026-05-06 19:00:00 -0400,0,0,0,0
2026-05-06 20:00:00 -0400,0,0,0,0
2026-05-06 21:00:00 -0400,0,0,0,0
2026-05-06 22:00:00 -0400,0,0,0,0
2026-05-06 23:00:00 -0400,0,0,0,0
2026-05-07 00:00:00 -0400,0,0,0,0
2026-05-07 01:00:00 -0400,0,0,0,0
2026-05-07 02:00:00 -0400,0,0,0,0
2026-05-07 03:00:00 -0400,0,0,0,0
2026-05-07 04:00:00 -0400,0,0,0,0
2026-05-07 05:00:00 -0400,0,0,0,0
2026-05-07 06:00:00 -0400,0,0,0,0
2026-05-07 07:00:00 -0400,0,0,0,0
2026-05-07 08:00:00 -0400,0,0,0,0
2026-05-07 09:00:00 -0400,0,0,0,0
2026-05-07 10:00:00 -0400,0,0,0,0
2026-05-07 11:00:00 -0400,0,0,0,0
2026-05-07 12:00:00 -0400,0,0,0,0
2026-05-07 13:00:00 -0400,0,0,0,0
2026-05-07 14:00:00 -0400,0,0,0,0
2026-05-07 15:00:00 -0400,0,0,0,0
2026-05-07 16:00:00 -0400,0,0,0,0
2026-05-07 17:00:00 -0400,0,0,0,0
2026-05-07 18:00:00 -0400,0,0,0,0
2026-05-07 19:00:00 -0400,0,0,0,0
2026-05-07 20:00:00 -0400,0,0,0,0
2026-05-07 21:00:00 -0400,0,0,0,0
2026-05-07 22:00:00 -0400,0,0,0,0
2026-05-07 23:00:00 -0400,0,0,0,0
2026-05-08 00:00:00 -0400,0,0,0,0
2026-05-08 01:00:00 -0400,0,0,0,0
2026-05-08 02:00:00 -0400,0,0,0,0
2026-05-08 03:00:00 -0400,0,0,0,0
2026-05-08 04:00:00 -0400,0,0,0,0
2026-05-08 05:00:00 -0400,0,0,0,0
2026-05-08 06:00:00 -0400,0,0,0,0
2026-05-08 07:00:00 -0400,0,0,0,0
2026-05-08 08:00:00 -0400,0,0,0,0
2026-05-08 09:00:00 -0400,0,0,0,0
2026-05-08 10:00:00 -0400,0,0,0,0
2026-05-08 11:00:00 -0400,0,0,0,0
2026-05-08 12:00:00 -0400,0,0,0,0
2026-05-08 13:00:00 -0400,0,0,0,0
2026-05-08 14:00:00 -0400,0,0,0,0
2026-05-08 15:00:00 -0400,0,0,1,0
2026-05-08 16:00:00 -0400,0,0,0,0
2026-05-08 17:00:00 -0400,0,0,0,0
2026-05-08 18:00:00 -0400,1,0,0,0
2026-05-08 19:00:00 -0400,0,0,2,1
2026-05-08 20:00:00 -0400,0,0,0,0
2026-05-08 21:00:00 -0400,0,0,0,0
2026-05-08 22:00:00 -0400,0,0,0,0
2026-05-08 23:00:00 -0400,0,0,0,0
2026-05-09 00:00:00 -0400,0,0,0,0
2026-05-09 01:00:00 -0400,0,0,0,0
2026-05-09 02:00:00 -0400,0,0,0,0
2026-05-09 03:00:00 -0400,0,0,0,0
2026-05-09 04:00:00 -0400,0,0,0,0
2026-05-09 05:00:00 -0400,0,0,0,0
2026-05-09 06:00:00 -0400,0,0,0,0
2026-05-09 07:00:00 -0400,0,0,0,0
2026-05-09 08:00:00 -0400,0,0,0,0
2026-05-09 09:00:00 -0400,0,0,0,0
2026-05-09 10:00:00 -0400,0,0,0,0
2026-05-09 11:00:00 -0400,0,0,0,0
2026-05-09 12:00:00 -0400,0,0,0,0
2026-05-09 13:00:00 -0400,0,0,1,0
2026-05-09 14:00:00 -0400,0,0,0,0
2026-05-09 15:00:00 -0400,0,0,0,0
2026-05-09 16:00:00 -0400,0,0,0,0
2026-05-09 17:00:00 -0400,0,0,0,0
2026-05-09 18:00:00 -0400,0,0,0,0
2026-05-09 19:00:00 -0400,0,0,0,0
2026-05-09 20:00:00 -0400,0,0,0,0
2026-05-09 21:00:00 -0400,0,0,0,0
2026-05-09 22:00:00 -0400,0,0,1,0
2026-05-09 23:00:00 -0400,0,0,0,0
2026-05-10 00:00:00 -0400,0,0,0,0
2026-05-10 01:00:00 -0400,0,0,0,0
2026-05-10 02:00:00 -0400,0,0,0,0
2026-05-10 03:00:00 -0400,0,0,0,0
2026-05-10 04:00:00 -0400,0,0,0,0
2026-05-10 05:00:00 -0400,0,0,0,0
2026-05-10 06:00:00 -0400,0,0,0,0
2026-05-10 07:00:00 -0400,0,0,0,0
2026-05-10 08:00:00 -0400,0,0,0,0
2026-05-10 09:00:00 -0400,0,0,0,0
2026-05-10 10:00:00 -0400,0,0,0,0
2026-05-10 11:00:00 -0400,0,0,0,0
2026-05-10 12:00:00 -0400,0,0,0,0
2026-05-10 13:00:00 -0400,0,0,0,0
2026-05-10 14:00:00 -0400,0,0,0,0
2026-05-10 15:00:00 -0400,0,0,0,0
2026-05-10 16:00:00 -0400,0,0,0,0
2026-05-10 17:00:00 -0400,0,0,0,0
2026-05-10 18:00:00 -0400,0,0,0,0
2026-05-10 19:00:00 -0400,0,0,0,0
2026-05-10 20:00:00 -0400,0,0,0,0
2026-05-10 21:00:00 -0400,0,0,0,0
2026-05-10 22:00:00 -0400,0,0,0,0
2026-05-10 23:00:00 -0400,0,0,0,0
2026-05-11 00:00:00 -0400,0,0,0,0
2026-05-11 01:00:00 -0400,0,0,0,0
2026-05-11 02:00:00 -0400,0,0,0,0
2026-05-11 03:00:00 -0400,0,0,0,0
2026-05-11 04:00:00 -0400,0,0,0,0
2026-05-11 05:00:00 -0400,0,0,0,0
2026-05-11 06:00:00 -0400,0,0,0,0
2026-05-11 07:00:00 -0400,0,0,0,0
2026-05-11 08:00:00 -0400,0,0,0,0
2026-05-11 09:00:00 -0400,0,0,0,0
2026-05-11 10:00:00 -0400,0,0,0,0
2026-05-11 11:00:00 -0400,0,0,0,0
2026-05-11 12:00:00 -0400,0,0,0,0
2026-05-11 13:00:00 -0400,0,0,0,0
2026-05-11 14:00:00 -0400,0,0,0,0
2026-05-11 15:00:00 -0400,0,0,0,0
2026-05-11 16:00:00 -0400,0,0,0,0
2026-05-11 17:00:00 -0400,0,0,0,0
2026-05-11 18:00:00 -0400,0,0,0,0
2026-05-11 19:00:00 -0400,0,0,0,0
2026-05-11 20:00:00 -0400,0,0,0,0
2026-05-11 21:00:00 -0400,0,0,0,0
2026-05-11 22:00:00 -0400,0,0,0,0
2026-05-11 23:00:00 -0400,0,0,0,0
